Time	Current
 0.00000	2.0817e-23
 0.00054	6.9524e-24
 0.00108	6.9389e-24
 0.00162	1.3858e-23
 0.00216	1.3878e-23
 0.00270	6.9726e-24
 0.00324	6.9389e-24
 0.00378	6.9389e-24
 0.00432	6.9389e-24
 0.00486	6.9389e-24
 0.00540	1.2557e-10
 0.00594	4.6823e-10
 0.00648	1.1539e-09
 0.00702	2.2309e-09
 0.00756	3.5854e-09
 0.00810	4.9750e-09
 0.00864	6.1709e-09
 0.00918	7.0728e-09
 0.00972	7.7060e-09
 0.01026	8.1473e-09
 0.01080	8.4556e-09
 0.01134	8.6895e-09
 0.01188	8.8706e-09
 0.01242	9.0108e-09
 0.01296	9.1183e-09
 0.01350	9.1992e-09
 0.01404	9.2579e-09
 0.01458	9.2973e-09
 0.01512	9.3197e-09
 0.01566	9.3269e-09
 0.01620	9.3208e-09
 0.01674	9.3029e-09
 0.01728	9.2747e-09
 0.01782	9.2375e-09
 0.01836	9.1926e-09
 0.01890	9.1409e-09
 0.01944	9.0833e-09
 0.01998	9.0207e-09
 0.02052	8.9538e-09
 0.02106	8.8830e-09
 0.02160	8.8091e-09
 0.02214	8.7323e-09
 0.02268	8.6565e-09
 0.02322	8.5886e-09
 0.02376	8.5371e-09
 0.02430	8.5121e-09
 0.02484	8.5177e-09
 0.02538	8.5512e-09
 0.02592	8.6024e-09
 0.02646	8.6612e-09
 0.02700	8.7197e-09
 0.02754	8.7752e-09
 0.02808	8.8258e-09
 0.02862	8.8591e-09
 0.02916	8.8356e-09
 0.02970	8.7278e-09
 0.03024	8.5080e-09
 0.03078	8.1850e-09
 0.03132	7.8161e-09
 0.03186	7.4766e-09
 0.03240	7.2718e-09
 0.03294	7.2326e-09
 0.03348	7.3773e-09
 0.03402	7.6201e-09
 0.03456	7.9156e-09
 0.03510	8.1344e-09
 0.03564	8.2434e-09
 0.03618	8.3063e-09
 0.03672	8.4002e-09
 0.03726	8.5365e-09
 0.03780	8.6642e-09
 0.03834	8.7513e-09
 0.03888	8.7912e-09
 0.03942	8.8063e-09
 0.03996	8.7990e-09
 0.04050	8.7897e-09
 0.04104	8.7796e-09
 0.04158	8.7690e-09
 0.04212	8.7583e-09
 0.04266	8.7478e-09
 0.04320	8.7381e-09
 0.04374	8.7294e-09
 0.04428	8.7210e-09
 0.04482	8.7125e-09
 0.04536	8.7029e-09
 0.04590	8.6919e-09
 0.04644	8.6791e-09
 0.04698	8.6648e-09
 0.04752	8.6492e-09
 0.04806	8.6330e-09
 0.04860	8.6165e-09
 0.04914	8.6004e-09
 0.04968	8.5847e-09
 0.05022	8.5694e-09
 0.05076	8.4386e-09
 0.05130	8.1338e-09
 0.05184	7.5699e-09
 0.05238	6.7422e-09
 0.05292	5.7846e-09
 0.05346	4.9105e-09
 0.05400	4.2771e-09
 0.05454	3.9062e-09
 0.05508	3.7224e-09
 0.05562	3.6360e-09
 0.05616	3.5989e-09
 0.05670	3.5698e-09
 0.05724	3.5445e-09
 0.05778	3.5232e-09
 0.05832	3.5055e-09
 0.05886	3.4915e-09
 0.05940	3.4808e-09
 0.05994	3.4734e-09
 0.06048	3.4692e-09
 0.06102	3.4679e-09
 0.06156	3.4694e-09
 0.06210	3.4735e-09
 0.06264	3.4799e-09
 0.06318	3.4885e-09
 0.06372	3.4988e-09
 0.06426	3.5105e-09
 0.06480	3.5232e-09
 0.06534	3.5364e-09
 0.06588	3.5500e-09
 0.06642	3.5640e-09
 0.06696	3.5785e-09
 0.06750	3.5936e-09
 0.06804	3.6095e-09
 0.06858	3.6260e-09
 0.06912	3.6431e-09
 0.06966	3.6614e-09
 0.07020	3.6815e-09
 0.07074	3.7037e-09
 0.07128	3.7280e-09
 0.07182	3.7531e-09
 0.07236	3.7770e-09
 0.07290	3.7971e-09
 0.07344	3.8119e-09
 0.07398	3.8210e-09
 0.07452	3.8256e-09
 0.07506	3.8275e-09
 0.07560	3.8290e-09
 0.07614	3.8322e-09
 0.07668	3.8365e-09
 0.07722	3.8403e-09
 0.07776	3.8420e-09
 0.07830	3.8421e-09
 0.07884	3.8414e-09
 0.07938	3.8404e-09
 0.07992	3.8389e-09
 0.08046	3.8365e-09
 0.08100	3.8329e-09
 0.08154	3.8278e-09
 0.08208	3.9111e-09
 0.08262	4.1341e-09
 0.08316	4.5641e-09
 0.08370	5.2073e-09
 0.08424	5.9575e-09
 0.08478	6.6404e-09
 0.08532	7.1239e-09
 0.08586	7.3861e-09
 0.08640	7.4881e-09
 0.08694	7.5061e-09
 0.08748	7.4834e-09
 0.08802	7.4549e-09
 0.08856	7.4260e-09
 0.08910	7.3967e-09
 0.08964	7.3671e-09
 0.09018	7.3372e-09
 0.09072	7.2215e-09
 0.09126	6.9703e-09
 0.09180	6.5203e-09
 0.09234	5.8654e-09
 0.09288	5.1069e-09
 0.09342	4.4115e-09
 0.09396	3.9049e-09
 0.09450	3.6072e-09
 0.09504	3.4592e-09
 0.09558	3.3883e-09
 0.09612	3.3542e-09
 0.09666	3.3249e-09
 0.09720	3.2958e-09
 0.09774	3.2676e-09
 0.09828	3.2403e-09
 0.09882	3.2140e-09
 0.09936	3.1888e-09
 0.09990	3.1647e-09
 0.10044	3.1417e-09
 0.10098	3.1197e-09
 0.10152	3.0990e-09
 0.10206	3.0795e-09
 0.10260	3.0613e-09
 0.10314	3.0443e-09
 0.10368	3.0286e-09
 0.10422	3.0142e-09
 0.10476	3.0009e-09
 0.10530	2.9889e-09
 0.10584	2.9782e-09
 0.10638	2.9687e-09
 0.10692	2.9603e-09
 0.10746	2.9532e-09
 0.10800	2.9470e-09
 0.10854	2.9419e-09
 0.10908	2.9376e-09
 0.10962	2.9343e-09
 0.11016	2.9318e-09
 0.11070	2.9300e-09
 0.11124	2.9290e-09
 0.11178	2.9286e-09
 0.11232	2.9288e-09
 0.11286	2.9294e-09
 0.11340	2.9305e-09
 0.11394	2.9319e-09
 0.11448	2.9337e-09
 0.11502	2.9358e-09
 0.11556	2.9382e-09
 0.11610	2.9408e-09
 0.11664	2.9434e-09
 0.11718	2.9461e-09
 0.11772	2.9488e-09
 0.11826	2.9516e-09
 0.11880	2.9543e-09
 0.11934	2.9568e-09
 0.11988	2.9591e-09
 0.12042	2.9612e-09
 0.12096	2.9631e-09
 0.12150	2.9649e-09
 0.12204	2.9664e-09
 0.12258	2.9669e-09
 0.12312	2.9647e-09
 0.12366	2.9589e-09
 0.12420	2.9489e-09
 0.12474	2.9360e-09
 0.12528	2.9232e-09
 0.12582	2.9138e-09
 0.12636	2.9093e-09
 0.12690	2.9089e-09
 0.12744	2.9109e-09
 0.12798	2.9137e-09
 0.12852	2.9164e-09
 0.12906	2.9327e-09
 0.12960	2.9705e-09
 0.13014	3.0376e-09
 0.13068	3.1305e-09
 0.13122	3.2265e-09
 0.13176	3.2926e-09
 0.13230	3.3063e-09
 0.13284	3.2697e-09
 0.13338	3.2019e-09
 0.13392	3.1256e-09
 0.13446	3.0562e-09
 0.13500	3.0036e-09
 0.13554	2.9683e-09
 0.13608	2.9460e-09
 0.13662	2.9312e-09
 0.13716	2.9200e-09
 0.13770	2.9102e-09
 0.13824	2.9007e-09
 0.13878	2.8912e-09
 0.13932	2.8817e-09
 0.13986	2.8723e-09
 0.14040	2.8630e-09
 0.14094	2.8537e-09
 0.14148	2.8445e-09
 0.14202	2.8353e-09
 0.14256	2.8262e-09
 0.14310	2.8171e-09
 0.14364	2.8080e-09
 0.14418	2.7990e-09
 0.14472	2.7901e-09
 0.14526	2.7811e-09
 0.14580	2.7723e-09
 0.14634	2.7635e-09
 0.14688	2.7548e-09
 0.14742	2.7461e-09
 0.14796	2.7375e-09
 0.14850	2.7290e-09
 0.14904	2.7206e-09
 0.14958	2.7122e-09
 0.15012	2.7037e-09
 0.15066	2.6953e-09
 0.15120	2.6868e-09
 0.15174	2.6784e-09
 0.15228	2.6701e-09
 0.15282	2.6619e-09
 0.15336	2.6537e-09
 0.15390	2.6456e-09
 0.15444	2.6375e-09
 0.15498	2.6294e-09
 0.15552	2.6213e-09
 0.15606	2.6132e-09
 0.15660	2.6051e-09
 0.15714	2.5971e-09
 0.15768	2.5892e-09
 0.15822	2.5814e-09
 0.15876	2.5736e-09
 0.15930	2.5659e-09
 0.15984	2.5581e-09
 0.16038	2.5504e-09
 0.16092	2.5427e-09
 0.16146	2.5351e-09
 0.16200	2.5274e-09
 0.16254	2.5198e-09
 0.16308	2.5122e-09
 0.16362	2.5047e-09
 0.16416	2.4971e-09
 0.16470	2.4895e-09
 0.16524	2.4820e-09
 0.16578	2.4745e-09
 0.16632	2.4671e-09
 0.16686	2.4596e-09
 0.16740	2.4521e-09
 0.16794	2.4447e-09
 0.16848	2.4374e-09
 0.16902	2.4302e-09
 0.16956	2.4228e-09
 0.17010	2.4152e-09
 0.17064	2.4072e-09
 0.17118	2.3992e-09
 0.17172	2.3911e-09
 0.17226	2.3833e-09
 0.17280	2.3760e-09
 0.17334	2.3692e-09
 0.17388	2.3629e-09
 0.17442	2.3568e-09
 0.17496	2.3505e-09
 0.17550	2.3441e-09
 0.17604	2.3374e-09
 0.17658	2.3305e-09
 0.17712	2.3234e-09
 0.17766	2.3163e-09
 0.17820	2.3091e-09
 0.17874	2.3019e-09
 0.17928	2.2949e-09
 0.17982	2.2879e-09
 0.18036	2.2810e-09
 0.18090	2.2740e-09
 0.18144	2.2671e-09
 0.18198	2.2602e-09
 0.18252	2.2534e-09
 0.18306	2.2466e-09
 0.18360	2.2399e-09
 0.18414	2.2331e-09
 0.18468	2.2265e-09
 0.18522	2.2198e-09
 0.18576	2.2131e-09
 0.18630	2.2064e-09
 0.18684	2.1997e-09
 0.18738	2.1930e-09
 0.18792	2.1864e-09
 0.18846	2.1798e-09
 0.18900	2.1733e-09
 0.18954	2.1668e-09
 0.19008	2.1603e-09
 0.19062	2.1539e-09
 0.19116	2.1475e-09
 0.19170	2.1411e-09
 0.19224	2.1346e-09
 0.19278	2.1282e-09
 0.19332	2.1219e-09
 0.19386	2.1156e-09
 0.19440	2.1095e-09
 0.19494	2.1035e-09
 0.19548	2.0975e-09
 0.19602	2.0914e-09
 0.19656	2.0851e-09
 0.19710	2.0787e-09
 0.19764	2.0723e-09
 0.19818	2.0660e-09
 0.19872	2.0598e-09
 0.19926	2.0538e-09
 0.19980	2.0479e-09
 0.20034	2.0420e-09
 0.20088	2.0362e-09
 0.20142	2.0303e-09
 0.20196	2.0243e-09
 0.20250	2.0183e-09
 0.20304	2.0125e-09
 0.20358	2.0068e-09
 0.20412	2.0012e-09
 0.20466	1.9955e-09
 0.20520	1.9898e-09
 0.20574	1.9840e-09
 0.20628	1.9780e-09
 0.20682	1.9722e-09
 0.20736	1.9666e-09
 0.20790	1.9611e-09
 0.20844	1.9557e-09
 0.20898	1.9502e-09
 0.20952	1.9447e-09
 0.21006	1.9391e-09
 0.21060	1.9337e-09
 0.21114	1.9285e-09
 0.21168	1.9232e-09
 0.21222	1.9180e-09
 0.21276	1.9126e-09
 0.21330	1.9073e-09
 0.21384	1.9019e-09
 0.21438	1.8964e-09
 0.21492	1.8911e-09
 0.21546	1.8858e-09
 0.21600	1.8806e-09
 0.21654	1.8754e-09
 0.21708	1.8701e-09
 0.21762	1.8649e-09
 0.21816	1.8597e-09
 0.21870	1.8547e-09
 0.21924	1.8498e-09
 0.21978	1.8447e-09
 0.22032	1.8396e-09
 0.22086	1.8346e-09
 0.22140	1.8298e-09
 0.22194	1.8250e-09
 0.22248	1.8203e-09
 0.22302	1.8154e-09
 0.22356	1.8104e-09
 0.22410	1.8055e-09
 0.22464	1.8006e-09
 0.22518	1.7957e-09
 0.22572	1.7910e-09
 0.22626	1.7863e-09
 0.22680	1.7815e-09
 0.22734	1.7768e-09
 0.22788	1.7721e-09
 0.22842	1.7675e-09
 0.22896	1.7629e-09
 0.22950	1.7583e-09
 0.23004	1.7537e-09
 0.23058	1.7492e-09
 0.23112	1.7448e-09
 0.23166	1.7405e-09
 0.23220	1.7360e-09
 0.23274	1.7315e-09
 0.23328	1.7270e-09
 0.23382	1.7226e-09
 0.23436	1.7184e-09
 0.23490	1.7142e-09
 0.23544	1.7101e-09
 0.23598	1.7061e-09
 0.23652	1.7020e-09
 0.23706	1.6978e-09
 0.23760	1.6934e-09
 0.23814	1.6889e-09
 0.23868	1.6846e-09
 0.23922	1.6803e-09
 0.23976	1.6762e-09
 0.24030	1.6723e-09
 0.24084	1.6683e-09
 0.24138	1.6643e-09
 0.24192	1.6602e-09
 0.24246	1.6562e-09
 0.24300	1.6521e-09
 0.24354	1.6481e-09
 0.24408	1.6442e-09
 0.24462	1.6404e-09
 0.24516	1.6366e-09
 0.24570	1.6329e-09
 0.24624	1.6292e-09
 0.24678	1.6254e-09
 0.24732	1.6216e-09
 0.24786	1.6177e-09
 0.24840	1.6138e-09
 0.24894	1.6100e-09
 0.24948	1.6063e-09
 0.25002	1.6027e-09
 0.25056	1.5991e-09
 0.25110	1.5956e-09
 0.25164	1.5920e-09
 0.25218	1.5884e-09
 0.25272	1.5848e-09
 0.25326	1.5811e-09
 0.25380	1.5774e-09
 0.25434	1.5738e-09
 0.25488	1.5704e-09
 0.25542	1.5672e-09
 0.25596	1.5642e-09
 0.25650	1.5611e-09
 0.25704	1.5578e-09
 0.25758	1.5544e-09
 0.25812	1.5508e-09
 0.25866	1.5471e-09
 0.25920	1.5434e-09
 0.25974	1.5400e-09
 0.26028	1.5368e-09
 0.26082	1.5338e-09
 0.26136	1.5308e-09
 0.26190	1.5278e-09
 0.26244	1.5247e-09
 0.26298	1.5216e-09
 0.26352	1.5184e-09
 0.26406	1.5152e-09
 0.26460	1.5120e-09
 0.26514	1.5089e-09
 0.26568	1.5059e-09
 0.26622	1.5030e-09
 0.26676	1.5001e-09
 0.26730	1.4971e-09
 0.26784	1.4941e-09
 0.26838	1.4911e-09
 0.26892	1.4881e-09
 0.26946	1.4852e-09
 0.27000	1.4824e-09
 0.27054	1.4796e-09
 0.27108	1.4768e-09
 0.27162	1.4739e-09
 0.27216	1.4711e-09
 0.27270	1.4684e-09
 0.27324	1.4658e-09
 0.27378	1.4631e-09
 0.27432	1.4604e-09
 0.27486	1.4575e-09
 0.27540	1.4546e-09
 0.27594	1.4518e-09
 0.27648	1.4490e-09
 0.27702	1.4465e-09
 0.27756	1.4441e-09
 0.27810	1.4418e-09
 0.27864	1.4394e-09
 0.27918	1.4368e-09
 0.27972	1.4343e-09
 0.28026	1.4318e-09
 0.28080	1.4294e-09
 0.28134	1.4270e-09
 0.28188	1.4245e-09
 0.28242	1.4219e-09
 0.28296	1.4193e-09
 0.28350	1.4167e-09
 0.28404	1.4144e-09
 0.28458	1.4121e-09
 0.28512	1.4099e-09
 0.28566	1.4076e-09
 0.28620	1.4051e-09
 0.28674	1.4027e-09
 0.28728	1.4003e-09
 0.28782	1.3982e-09
 0.28836	1.3962e-09
 0.28890	1.3942e-09
 0.28944	1.3922e-09
 0.28998	1.3902e-09
 0.29052	1.3881e-09
 0.29106	1.3860e-09
 0.29160	1.3838e-09
 0.29214	1.3816e-09
 0.29268	1.3794e-09
 0.29322	1.3773e-09
 0.29376	1.3752e-09
 0.29430	1.3731e-09
 0.29484	1.3710e-09
 0.29538	1.3689e-09
 0.29592	1.3670e-09
 0.29646	1.3652e-09
 0.29700	1.3635e-09
 0.29754	1.3616e-09
 0.29808	1.3596e-09
 0.29862	1.3575e-09
 0.29916	1.3554e-09
 0.29970	1.3534e-09
 0.30024	1.3516e-09
 0.30078	1.3500e-09
 0.30132	1.3483e-09
 0.30186	1.3466e-09
 0.30240	1.3447e-09
 0.30294	1.3429e-09
 0.30348	1.3411e-09
 0.30402	1.3393e-09
 0.30456	1.3374e-09
 0.30510	1.3355e-09
 0.30564	1.3337e-09
 0.30618	1.3321e-09
 0.30672	1.3307e-09
 0.30726	1.3292e-09
 0.30780	1.3278e-09
 0.30834	1.3263e-09
 0.30888	1.3248e-09
 0.30942	1.3231e-09
 0.30996	1.3212e-09
 0.31050	1.3195e-09
 0.31104	1.3179e-09
 0.31158	1.3165e-09
 0.31212	1.3151e-09
 0.31266	1.3138e-09
 0.31320	1.3125e-09
 0.31374	1.3112e-09
 0.31428	1.3100e-09
 0.31482	1.3087e-09
 0.31536	1.3074e-09
 0.31590	1.3059e-09
 0.31644	1.3043e-09
 0.31698	1.3027e-09
 0.31752	1.3011e-09
 0.31806	1.2996e-09
 0.31860	1.2982e-09
 0.31914	1.2970e-09
 0.31968	1.2956e-09
 0.32022	1.2943e-09
 0.32076	1.2929e-09
 0.32130	1.2916e-09
 0.32184	1.2903e-09
 0.32238	1.2890e-09
 0.32292	1.2878e-09
 0.32346	1.2866e-09
 0.32400	1.2855e-09
 0.32454	1.2843e-09
 0.32508	1.2832e-09
 0.32562	1.2822e-09
 0.32616	1.2810e-09
 0.32670	1.2798e-09
 0.32724	1.2787e-09
 0.32778	1.2776e-09
 0.32832	1.2765e-09
 0.32886	1.2755e-09
 0.32940	1.2744e-09
 0.32994	1.2732e-09
 0.33048	1.2720e-09
 0.33102	1.2708e-09
 0.33156	1.2699e-09
 0.33210	1.2691e-09
 0.33264	1.2682e-09
 0.33318	1.2673e-09
 0.33372	1.2663e-09
 0.33426	1.2652e-09
 0.33480	1.2643e-09
 0.33534	1.2634e-09
 0.33588	1.2626e-09
 0.33642	1.2617e-09
 0.33696	1.2609e-09
 0.33750	1.2602e-09
 0.33804	1.2595e-09
 0.33858	1.2586e-09
 0.33912	1.2575e-09
 0.33966	1.2564e-09
 0.34020	1.2554e-09
 0.34074	1.2546e-09
 0.34128	1.2540e-09
 0.34182	1.2533e-09
 0.34236	1.2526e-09
 0.34290	1.2518e-09
 0.34344	1.2509e-09
 0.34398	1.2501e-09
 0.34452	1.2494e-09
 0.34506	1.2485e-09
 0.34560	1.2476e-09
 0.34614	1.2466e-09
 0.34668	1.2458e-09
 0.34722	1.2453e-09
 0.34776	1.2450e-09
 0.34830	1.2447e-09
 0.34884	1.2442e-09
 0.34938	1.2434e-09
 0.34992	1.2426e-09
 0.35046	1.2418e-09
 0.35100	1.2412e-09
 0.35154	1.2407e-09
 0.35208	1.2402e-09
 0.35262	1.2397e-09
 0.35316	1.2392e-09
 0.35370	1.2387e-09
 0.35424	1.2381e-09
 0.35478	1.2374e-09
 0.35532	1.2367e-09
 0.35586	1.2360e-09
 0.35640	1.2354e-09
 0.35694	1.2350e-09
 0.35748	1.2346e-09
 0.35802	1.2341e-09
 0.35856	1.2337e-09
 0.35910	1.2332e-09
 0.35964	1.2329e-09
 0.36018	1.2326e-09
 0.36072	1.2323e-09
 0.36126	1.2318e-09
 0.36180	1.2313e-09
 0.36234	1.2309e-09
 0.36288	1.2306e-09
 0.36342	1.2303e-09
 0.36396	1.2299e-09
 0.36450	1.2294e-09
 0.36504	1.2288e-09
 0.36558	1.2282e-09
 0.36612	1.2278e-09
 0.36666	1.2276e-09
 0.36720	1.2275e-09
 0.36774	1.2272e-09
 0.36828	1.2269e-09
 0.36882	1.2265e-09
 0.36936	1.2262e-09
 0.36990	1.2258e-09
 0.37044	1.2255e-09
 0.37098	1.2252e-09
 0.37152	1.2250e-09
 0.37206	1.2246e-09
 0.37260	1.2244e-09
 0.37314	1.2243e-09
 0.37368	1.2243e-09
 0.37422	1.2245e-09
 0.37476	1.2244e-09
 0.37530	1.2242e-09
 0.37584	1.2237e-09
 0.37638	1.2233e-09
 0.37692	1.2229e-09
 0.37746	1.2226e-09
 0.37800	1.2223e-09
 0.37854	1.2221e-09
 0.37908	1.2219e-09
 0.37962	1.2219e-09
 0.38016	1.2219e-09
 0.38070	1.2218e-09
 0.38124	1.2216e-09
 0.38178	1.2214e-09
 0.38232	1.2210e-09
 0.38286	1.2207e-09
 0.38340	1.2205e-09
 0.38394	1.2206e-09
 0.38448	1.2206e-09
 0.38502	1.2207e-09
 0.38556	1.2207e-09
 0.38610	1.2207e-09
 0.38664	1.2206e-09
 0.38718	1.2205e-09
 0.38772	1.2205e-09
 0.38826	1.2206e-09
 0.38880	1.2207e-09
 0.38934	1.2208e-09
 0.38988	1.2208e-09
 0.39042	1.2207e-09
 0.39096	1.2206e-09
 0.39150	1.2205e-09
 0.39204	1.2205e-09
 0.39258	1.2205e-09
 0.39312	1.2205e-09
 0.39366	1.2206e-09
 0.39420	1.2206e-09
 0.39474	1.2206e-09
 0.39528	1.2206e-09
 0.39582	1.2206e-09
 0.39636	1.2207e-09
 0.39690	1.2206e-09
 0.39744	1.2207e-09
 0.39798	1.2209e-09
 0.39852	1.2209e-09
 0.39906	1.2209e-09
 0.39960	1.2209e-09
 0.40014	1.2211e-09
 0.40068	1.2212e-09
 0.40122	1.2212e-09
 0.40176	1.2212e-09
 0.40230	1.2213e-09
 0.40284	1.2214e-09
 0.40338	1.2218e-09
 0.40392	1.2222e-09
 0.40446	1.2228e-09
 0.40500	1.2232e-09
 0.40554	1.2234e-09
 0.40608	1.2235e-09
 0.40662	1.2235e-09
 0.40716	1.2234e-09
 0.40770	1.2233e-09
 0.40824	1.2232e-09
 0.40878	1.2233e-09
 0.40932	1.2235e-09
 0.40986	1.2238e-09
 0.41040	1.2241e-09
 0.41094	1.2242e-09
 0.41148	1.2243e-09
 0.41202	1.2244e-09
 0.41256	1.2248e-09
 0.41310	1.2252e-09
 0.41364	1.2256e-09
 0.41418	1.2257e-09
 0.41472	1.2258e-09
 0.41526	1.2260e-09
 0.41580	1.2263e-09
 0.41634	1.2268e-09
 0.41688	1.2272e-09
 0.41742	1.2276e-09
 0.41796	1.2280e-09
 0.41850	1.2283e-09
 0.41904	1.2286e-09
 0.41958	1.2289e-09
 0.42012	1.2291e-09
 0.42066	1.2293e-09
 0.42120	1.2295e-09
 0.42174	1.2297e-09
 0.42228	1.2299e-09
 0.42282	1.2301e-09
 0.42336	1.2302e-09
 0.42390	1.2305e-09
 0.42444	1.2310e-09
 0.42498	1.2315e-09
 0.42552	1.2320e-09
 0.42606	1.2326e-09
 0.42660	1.2331e-09
 0.42714	1.2335e-09
 0.42768	1.2338e-09
 0.42822	1.2340e-09
 0.42876	1.2341e-09
 0.42930	1.2343e-09
 0.42984	1.2347e-09
 0.43038	1.2352e-09
 0.43092	1.2358e-09
 0.43146	1.2364e-09
 0.43200	1.2370e-09
 0.43254	1.2376e-09
 0.43308	1.2381e-09
 0.43362	1.2386e-09
 0.43416	1.2390e-09
 0.43470	1.2394e-09
 0.43524	1.2397e-09
 0.43578	1.2401e-09
 0.43632	1.2405e-09
 0.43686	1.2408e-09
 0.43740	1.2410e-09
 0.43794	1.2410e-09
 0.43848	1.2412e-09
 0.43902	1.2414e-09
 0.43956	1.2417e-09
 0.44010	1.2421e-09
 0.44064	1.2425e-09
 0.44118	1.2430e-09
 0.44172	1.2436e-09
 0.44226	1.2443e-09
 0.44280	1.2449e-09
 0.44334	1.2455e-09
 0.44388	1.2459e-09
 0.44442	1.2464e-09
 0.44496	1.2470e-09
 0.44550	1.2475e-09
 0.44604	1.2482e-09
 0.44658	1.2487e-09
 0.44712	1.2491e-09
 0.44766	1.2496e-09
 0.44820	1.2499e-09
 0.44874	1.2505e-09
 0.44928	1.2509e-09
 0.44982	1.2514e-09
 0.45036	1.2519e-09
 0.45090	1.2525e-09
 0.45144	1.2531e-09
 0.45198	1.2538e-09
 0.45252	1.2544e-09
 0.45306	1.2548e-09
 0.45360	1.2551e-09
 0.45414	1.2553e-09
 0.45468	1.2555e-09
 0.45522	1.2559e-09
 0.45576	1.2563e-09
 0.45630	1.2569e-09
 0.45684	1.2575e-09
 0.45738	1.2582e-09
 0.45792	1.2590e-09
 0.45846	1.2598e-09
 0.45900	1.2604e-09
 0.45954	1.2608e-09
 0.46008	1.2610e-09
 0.46062	1.2611e-09
 0.46116	1.2614e-09
 0.46170	1.2618e-09
 0.46224	1.2624e-09
 0.46278	1.2630e-09
 0.46332	1.2636e-09
 0.46386	1.2641e-09
 0.46440	1.2646e-09
 0.46494	1.2652e-09
 0.46548	1.2657e-09
 0.46602	1.2662e-09
 0.46656	1.2667e-09
 0.46710	1.2672e-09
 0.46764	1.2679e-09
 0.46818	1.2687e-09
 0.46872	1.2694e-09
 0.46926	1.2705e-09
 0.46980	1.2746e-09
 0.47034	1.2847e-09
 0.47088	1.3028e-09
 0.47142	1.3284e-09
 0.47196	1.3560e-09
 0.47250	1.3771e-09
 0.47304	1.3851e-09
 0.47358	1.3789e-09
 0.47412	1.3624e-09
 0.47466	1.3407e-09
 0.47520	1.3173e-09
 0.47574	1.2944e-09
 0.47628	1.2724e-09
 0.47682	1.2510e-09
 0.47736	1.2304e-09
 0.47790	1.2104e-09
 0.47844	1.1910e-09
 0.47898	1.1728e-09
 0.47952	1.1589e-09
 0.48006	1.1537e-09
 0.48060	1.1608e-09
 0.48114	1.1820e-09
 0.48168	1.2136e-09
 0.48222	1.2470e-09
 0.48276	1.2737e-09
 0.48330	1.2904e-09
 0.48384	1.2986e-09
 0.48438	1.3016e-09
 0.48492	1.3022e-09
 0.48546	1.3020e-09
 0.48600	1.3016e-09
 0.48654	1.3012e-09
 0.48708	1.3007e-09
 0.48762	1.3005e-09
 0.48816	1.3004e-09
 0.48870	1.3006e-09
 0.48924	1.3009e-09
 0.48978	1.3010e-09
 0.49032	1.3010e-09
 0.49086	1.3011e-09
 0.49140	1.3013e-09
 0.49194	1.3016e-09
 0.49248	1.3019e-09
 0.49302	1.3023e-09
 0.49356	1.3028e-09
 0.49410	1.3034e-09
 0.49464	1.3038e-09
 0.49518	1.3042e-09
 0.49572	1.3046e-09
 0.49626	1.3050e-09
 0.49680	1.3055e-09
 0.49734	1.3060e-09
 0.49788	1.3065e-09
 0.49842	1.3069e-09
 0.49896	1.3076e-09
 0.49950	1.3083e-09
 0.50004	1.3091e-09
 0.50058	1.3097e-09
 0.50112	1.3102e-09
 0.50166	1.3106e-09
 0.50220	1.3110e-09
 0.50274	1.3114e-09
 0.50328	1.3120e-09
 0.50382	1.3126e-09
 0.50436	1.3132e-09
 0.50490	1.3138e-09
 0.50544	1.3146e-09
 0.50598	1.3154e-09
 0.50652	1.3161e-09
 0.50706	1.3168e-09
 0.50760	1.3175e-09
 0.50814	1.3182e-09
 0.50868	1.3188e-09
 0.50922	1.3194e-09
 0.50976	1.3201e-09
 0.51030	1.3208e-09
 0.51084	1.3213e-09
 0.51138	1.3218e-09
 0.51192	1.3224e-09
 0.51246	1.3229e-09
 0.51300	1.3233e-09
 0.51354	1.3239e-09
 0.51408	1.3245e-09
 0.51462	1.3253e-09
 0.51516	1.3261e-09
 0.51570	1.3270e-09
 0.51624	1.3281e-09
 0.51678	1.3292e-09
 0.51732	1.3300e-09
 0.51786	1.3306e-09
 0.51840	1.3312e-09
 0.51894	1.3318e-09
 0.51948	1.3326e-09
 0.52002	1.3335e-09
 0.52056	1.3343e-09
 0.52110	1.3350e-09
 0.52164	1.3354e-09
 0.52218	1.3357e-09
 0.52272	1.3360e-09
 0.52326	1.3366e-09
 0.52380	1.3372e-09
 0.52434	1.3380e-09
 0.52488	1.3389e-09
 0.52542	1.3399e-09
 0.52596	1.3408e-09
 0.52650	1.3416e-09
 0.52704	1.3423e-09
 0.52758	1.3431e-09
 0.52812	1.3438e-09
 0.52866	1.3445e-09
 0.52920	1.3453e-09
 0.52974	1.3459e-09
 0.53028	1.3466e-09
 0.53082	1.3472e-09
 0.53136	1.3478e-09
 0.53190	1.3484e-09
 0.53244	1.3491e-09
 0.53298	1.3498e-09
 0.53352	1.3504e-09
 0.53406	1.3512e-09
 0.53460	1.3521e-09
 0.53514	1.3530e-09
 0.53568	1.3539e-09
 0.53622	1.3547e-09
 0.53676	1.3555e-09
 0.53730	1.3562e-09
 0.53784	1.3569e-09
 0.53838	1.3576e-09
 0.53892	1.3582e-09
