Time	Current
 0.00000	1.5348e-09
 0.00054	1.4806e-09
 0.00108	1.3314e-09
 0.00162	1.1145e-09
 0.00216	8.9443e-10
 0.00270	7.6268e-10
 0.00324	7.5421e-10
 0.00378	8.8377e-10
 0.00432	1.1498e-09
 0.00486	1.4988e-09
 0.00540	1.8511e-09
 0.00594	2.1464e-09
 0.00648	2.3566e-09
 0.00702	2.4938e-09
 0.00756	2.5820e-09
 0.00810	2.6410e-09
 0.00864	2.6880e-09
 0.00918	2.7271e-09
 0.00972	2.7616e-09
 0.01026	2.7913e-09
 0.01080	2.8173e-09
 0.01134	2.8396e-09
 0.01188	2.8589e-09
 0.01242	2.8754e-09
 0.01296	2.8894e-09
 0.01350	2.9012e-09
 0.01404	2.9110e-09
 0.01458	2.9190e-09
 0.01512	2.9253e-09
 0.01566	2.9302e-09
 0.01620	2.9337e-09
 0.01674	2.9360e-09
 0.01728	2.9372e-09
 0.01782	2.9374e-09
 0.01836	2.9366e-09
 0.01890	2.9351e-09
 0.01944	2.9328e-09
 0.01998	2.9297e-09
 0.02052	2.9261e-09
 0.02106	2.9218e-09
 0.02160	2.9170e-09
 0.02214	2.9118e-09
 0.02268	2.9061e-09
 0.02322	2.9000e-09
 0.02376	2.8935e-09
 0.02430	2.8866e-09
 0.02484	2.8795e-09
 0.02538	2.8721e-09
 0.02592	2.8644e-09
 0.02646	2.8564e-09
 0.02700	2.8482e-09
 0.02754	2.8399e-09
 0.02808	2.8313e-09
 0.02862	2.8226e-09
 0.02916	2.8137e-09
 0.02970	2.8047e-09
 0.03024	2.7956e-09
 0.03078	2.7863e-09
 0.03132	2.7769e-09
 0.03186	2.7675e-09
 0.03240	2.7579e-09
 0.03294	2.7483e-09
 0.03348	2.7386e-09
 0.03402	2.7288e-09
 0.03456	2.7190e-09
 0.03510	2.7092e-09
 0.03564	2.6992e-09
 0.03618	2.6893e-09
 0.03672	2.6793e-09
 0.03726	2.6693e-09
 0.03780	2.6593e-09
 0.03834	2.6492e-09
 0.03888	2.6392e-09
 0.03942	2.6290e-09
 0.03996	2.6189e-09
 0.04050	2.6087e-09
 0.04104	2.5984e-09
 0.04158	2.5883e-09
 0.04212	2.5782e-09
 0.04266	2.5681e-09
 0.04320	2.5581e-09
 0.04374	2.5481e-09
 0.04428	2.5381e-09
 0.04482	2.5280e-09
 0.04536	2.5179e-09
 0.04590	2.5078e-09
 0.04644	2.4977e-09
 0.04698	2.4877e-09
 0.04752	2.4776e-09
 0.04806	2.4676e-09
 0.04860	2.4576e-09
 0.04914	2.4477e-09
 0.04968	2.4378e-09
 0.05022	2.4279e-09
 0.05076	2.4180e-09
 0.05130	2.4082e-09
 0.05184	2.3984e-09
 0.05238	2.3886e-09
 0.05292	2.3788e-09
 0.05346	2.3691e-09
 0.05400	2.3594e-09
 0.05454	2.3497e-09
 0.05508	2.3401e-09
 0.05562	2.3304e-09
 0.05616	2.3209e-09
 0.05670	2.3113e-09
 0.05724	2.3017e-09
 0.05778	2.2922e-09
 0.05832	2.2827e-09
 0.05886	2.2733e-09
 0.05940	2.2638e-09
 0.05994	2.2544e-09
 0.06048	2.2450e-09
 0.06102	2.2356e-09
 0.06156	2.2263e-09
 0.06210	2.2170e-09
 0.06264	2.2077e-09
 0.06318	2.1984e-09
 0.06372	2.1892e-09
 0.06426	2.1799e-09
 0.06480	2.1707e-09
 0.06534	2.1616e-09
 0.06588	2.1524e-09
 0.06642	2.1433e-09
 0.06696	2.1342e-09
 0.06750	2.1252e-09
 0.06804	2.1161e-09
 0.06858	2.1071e-09
 0.06912	2.0981e-09
 0.06966	2.0891e-09
 0.07020	2.0802e-09
 0.07074	2.0713e-09
 0.07128	2.0624e-09
 0.07182	2.0535e-09
 0.07236	2.0447e-09
 0.07290	2.0358e-09
 0.07344	2.0270e-09
 0.07398	2.0183e-09
 0.07452	2.0095e-09
 0.07506	2.0008e-09
 0.07560	1.9921e-09
 0.07614	1.9834e-09
 0.07668	1.9747e-09
 0.07722	1.9661e-09
 0.07776	1.9575e-09
 0.07830	1.9489e-09
 0.07884	1.9404e-09
 0.07938	1.9319e-09
 0.07992	1.9234e-09
 0.08046	1.9149e-09
 0.08100	1.9064e-09
 0.08154	1.8980e-09
 0.08208	1.8896e-09
 0.08262	1.8812e-09
 0.08316	1.8728e-09
 0.08370	1.8645e-09
 0.08424	1.8562e-09
 0.08478	1.8479e-09
 0.08532	1.8396e-09
 0.08586	1.8314e-09
 0.08640	1.8232e-09
 0.08694	1.8150e-09
 0.08748	1.8069e-09
 0.08802	1.7987e-09
 0.08856	1.7906e-09
 0.08910	1.7825e-09
 0.08964	1.7745e-09
 0.09018	1.7664e-09
 0.09072	1.7584e-09
 0.09126	1.7504e-09
 0.09180	1.7424e-09
 0.09234	1.7345e-09
 0.09288	1.7266e-09
 0.09342	1.7187e-09
 0.09396	1.7108e-09
 0.09450	1.7030e-09
 0.09504	1.6952e-09
 0.09558	1.6874e-09
 0.09612	1.6796e-09
 0.09666	1.6719e-09
 0.09720	1.6641e-09
 0.09774	1.6564e-09
 0.09828	1.6488e-09
 0.09882	1.6411e-09
 0.09936	1.6335e-09
 0.09990	1.6259e-09
 0.10044	1.6183e-09
 0.10098	1.6108e-09
 0.10152	1.6032e-09
 0.10206	1.5957e-09
 0.10260	1.5883e-09
 0.10314	1.5808e-09
 0.10368	1.5734e-09
 0.10422	1.5660e-09
 0.10476	1.5586e-09
 0.10530	1.5512e-09
 0.10584	1.5439e-09
 0.10638	1.5366e-09
 0.10692	1.5293e-09
 0.10746	1.5221e-09
 0.10800	1.5148e-09
 0.10854	1.5076e-09
 0.10908	1.5004e-09
 0.10962	1.4933e-09
 0.11016	1.4861e-09
 0.11070	1.4790e-09
 0.11124	1.4719e-09
 0.11178	1.4649e-09
 0.11232	1.4578e-09
 0.11286	1.4508e-09
 0.11340	1.4438e-09
 0.11394	1.4369e-09
 0.11448	1.4299e-09
 0.11502	1.4230e-09
 0.11556	1.4161e-09
 0.11610	1.4092e-09
 0.11664	1.4024e-09
 0.11718	1.3956e-09
 0.11772	1.3888e-09
 0.11826	1.3820e-09
 0.11880	1.3753e-09
 0.11934	1.3685e-09
 0.11988	1.3618e-09
 0.12042	1.3552e-09
 0.12096	1.3485e-09
 0.12150	1.3419e-09
 0.12204	1.3353e-09
 0.12258	1.3287e-09
 0.12312	1.3221e-09
 0.12366	1.3156e-09
 0.12420	1.3091e-09
 0.12474	1.3026e-09
 0.12528	1.2962e-09
 0.12582	1.2897e-09
 0.12636	1.2833e-09
 0.12690	1.2769e-09
 0.12744	1.2706e-09
 0.12798	1.2642e-09
 0.12852	1.2579e-09
 0.12906	1.2516e-09
 0.12960	1.2453e-09
 0.13014	1.2391e-09
 0.13068	1.2329e-09
 0.13122	1.2267e-09
 0.13176	1.2205e-09
 0.13230	1.2143e-09
 0.13284	1.2082e-09
 0.13338	1.2021e-09
 0.13392	1.1960e-09
 0.13446	1.1899e-09
 0.13500	1.1839e-09
 0.13554	1.1779e-09
 0.13608	1.1719e-09
 0.13662	1.1659e-09
 0.13716	1.1600e-09
 0.13770	1.1541e-09
 0.13824	1.1482e-09
 0.13878	1.1423e-09
 0.13932	1.1365e-09
 0.13986	1.1307e-09
 0.14040	1.1249e-09
 0.14094	1.1191e-09
 0.14148	1.1133e-09
 0.14202	1.1076e-09
 0.14256	1.1019e-09
 0.14310	1.0962e-09
 0.14364	1.0905e-09
 0.14418	1.0849e-09
 0.14472	1.0793e-09
 0.14526	1.0737e-09
 0.14580	1.0681e-09
 0.14634	1.0626e-09
 0.14688	1.0570e-09
 0.14742	1.0515e-09
 0.14796	1.0461e-09
 0.14850	1.0406e-09
 0.14904	1.0352e-09
 0.14958	1.0298e-09
 0.15012	1.0244e-09
 0.15066	1.0190e-09
 0.15120	1.0137e-09
 0.15174	1.0083e-09
 0.15228	1.0030e-09
 0.15282	9.9774e-10
 0.15336	9.9248e-10
 0.15390	9.8724e-10
 0.15444	9.8203e-10
 0.15498	9.7684e-10
 0.15552	9.7166e-10
 0.15606	9.6651e-10
 0.15660	9.6138e-10
 0.15714	9.5627e-10
 0.15768	9.5119e-10
 0.15822	9.4614e-10
 0.15876	9.4110e-10
 0.15930	9.3608e-10
 0.15984	9.3108e-10
 0.16038	9.2610e-10
 0.16092	9.2115e-10
 0.16146	9.1622e-10
 0.16200	9.1132e-10
 0.16254	9.0645e-10
 0.16308	9.0160e-10
 0.16362	8.9676e-10
 0.16416	8.9195e-10
 0.16470	8.8714e-10
 0.16524	8.8236e-10
 0.16578	8.7759e-10
 0.16632	8.7285e-10
 0.16686	8.6812e-10
 0.16740	8.6342e-10
 0.16794	8.5875e-10
 0.16848	8.5410e-10
 0.16902	8.4947e-10
 0.16956	8.4486e-10
 0.17010	8.4028e-10
 0.17064	8.3570e-10
 0.17118	8.3115e-10
 0.17172	8.2663e-10
 0.17226	8.2212e-10
 0.17280	8.1763e-10
 0.17334	8.1316e-10
 0.17388	8.0870e-10
 0.17442	8.0427e-10
 0.17496	7.9986e-10
 0.17550	7.9547e-10
 0.17604	7.9111e-10
 0.17658	7.8676e-10
 0.17712	7.8244e-10
 0.17766	7.7813e-10
 0.17820	7.7384e-10
 0.17874	7.6958e-10
 0.17928	7.6534e-10
 0.17982	7.6111e-10
 0.18036	7.5691e-10
 0.18090	7.5272e-10
 0.18144	7.4855e-10
 0.18198	7.4440e-10
 0.18252	7.4027e-10
 0.18306	7.3616e-10
 0.18360	7.3207e-10
 0.18414	7.2800e-10
 0.18468	7.2395e-10
 0.18522	7.1992e-10
 0.18576	7.1591e-10
 0.18630	7.1192e-10
 0.18684	7.0795e-10
 0.18738	7.0400e-10
 0.18792	7.0006e-10
 0.18846	6.9614e-10
 0.18900	6.9225e-10
 0.18954	6.8837e-10
 0.19008	6.8452e-10
 0.19062	6.8067e-10
 0.19116	6.7685e-10
 0.19170	6.7304e-10
 0.19224	6.6925e-10
 0.19278	6.6548e-10
 0.19332	6.6174e-10
 0.19386	6.5801e-10
 0.19440	6.5430e-10
 0.19494	6.5060e-10
 0.19548	6.4692e-10
 0.19602	6.4326e-10
 0.19656	6.3962e-10
 0.19710	6.3600e-10
 0.19764	6.3240e-10
 0.19818	6.2882e-10
 0.19872	6.2525e-10
 0.19926	6.2170e-10
 0.19980	6.1816e-10
 0.20034	6.1464e-10
 0.20088	6.1114e-10
 0.20142	6.0765e-10
 0.20196	6.0419e-10
 0.20250	6.0074e-10
 0.20304	5.9732e-10
 0.20358	5.9391e-10
 0.20412	5.9052e-10
 0.20466	5.8715e-10
 0.20520	5.8379e-10
 0.20574	5.8044e-10
 0.20628	5.7712e-10
 0.20682	5.7381e-10
 0.20736	5.7052e-10
 0.20790	5.6725e-10
 0.20844	5.6399e-10
 0.20898	5.6075e-10
 0.20952	5.5752e-10
 0.21006	5.5431e-10
 0.21060	5.5112e-10
 0.21114	5.4795e-10
 0.21168	5.4479e-10
 0.21222	5.4165e-10
 0.21276	5.3852e-10
 0.21330	5.3540e-10
 0.21384	5.3230e-10
 0.21438	5.2921e-10
 0.21492	5.2614e-10
 0.21546	5.2309e-10
 0.21600	5.2006e-10
 0.21654	5.1704e-10
 0.21708	5.1404e-10
 0.21762	5.1105e-10
 0.21816	5.0808e-10
 0.21870	5.0513e-10
 0.21924	5.0221e-10
 0.21978	4.9930e-10
 0.22032	4.9642e-10
 0.22086	4.9354e-10
 0.22140	4.9067e-10
 0.22194	4.8781e-10
 0.22248	4.8496e-10
 0.22302	4.8212e-10
 0.22356	4.7930e-10
 0.22410	4.7649e-10
 0.22464	4.7369e-10
 0.22518	4.7092e-10
 0.22572	4.6817e-10
 0.22626	4.6544e-10
 0.22680	4.6272e-10
 0.22734	4.6002e-10
 0.22788	4.5733e-10
 0.22842	4.5465e-10
 0.22896	4.5198e-10
 0.22950	4.4932e-10
 0.23004	4.4669e-10
 0.23058	4.4407e-10
 0.23112	4.4147e-10
 0.23166	4.3888e-10
 0.23220	4.3630e-10
 0.23274	4.3373e-10
 0.23328	4.3117e-10
 0.23382	4.2862e-10
 0.23436	4.2609e-10
 0.23490	4.2357e-10
 0.23544	4.2107e-10
 0.23598	4.1858e-10
 0.23652	4.1610e-10
 0.23706	4.1365e-10
 0.23760	4.1120e-10
 0.23814	4.0878e-10
 0.23868	4.0637e-10
 0.23922	4.0397e-10
 0.23976	4.0158e-10
 0.24030	3.9919e-10
 0.24084	3.9681e-10
 0.24138	3.9445e-10
 0.24192	3.9211e-10
 0.24246	3.8979e-10
 0.24300	3.8749e-10
 0.24354	3.8520e-10
 0.24408	3.8292e-10
 0.24462	3.8066e-10
 0.24516	3.7840e-10
 0.24570	3.7614e-10
 0.24624	3.7390e-10
 0.24678	3.7166e-10
 0.24732	3.6944e-10
 0.24786	3.6722e-10
 0.24840	3.6502e-10
 0.24894	3.6284e-10
 0.24948	3.6068e-10
 0.25002	3.5854e-10
 0.25056	3.5641e-10
 0.25110	3.5430e-10
 0.25164	3.5219e-10
 0.25218	3.5009e-10
 0.25272	3.4800e-10
 0.25326	3.4592e-10
 0.25380	3.4385e-10
 0.25434	3.4179e-10
 0.25488	3.3975e-10
 0.25542	3.3772e-10
 0.25596	3.3569e-10
 0.25650	3.3368e-10
 0.25704	3.3168e-10
 0.25758	3.2970e-10
 0.25812	3.2773e-10
 0.25866	3.2577e-10
 0.25920	3.2382e-10
 0.25974	3.2188e-10
 0.26028	3.1995e-10
 0.26082	3.1803e-10
 0.26136	3.1612e-10
 0.26190	3.1422e-10
 0.26244	3.1234e-10
 0.26298	3.1046e-10
 0.26352	3.0859e-10
 0.26406	3.0674e-10
 0.26460	3.0490e-10
 0.26514	3.0307e-10
 0.26568	3.0125e-10
 0.26622	2.9943e-10
 0.26676	2.9763e-10
 0.26730	2.9583e-10
 0.26784	2.9405e-10
 0.26838	2.9228e-10
 0.26892	2.9053e-10
 0.26946	2.8879e-10
 0.27000	2.8706e-10
 0.27054	2.8534e-10
 0.27108	2.8361e-10
 0.27162	2.8190e-10
 0.27216	2.8019e-10
 0.27270	2.7849e-10
 0.27324	2.7681e-10
 0.27378	2.7514e-10
 0.27432	2.7348e-10
 0.27486	2.7183e-10
 0.27540	2.7019e-10
 0.27594	2.6856e-10
 0.27648	2.6694e-10
 0.27702	2.6533e-10
 0.27756	2.6374e-10
 0.27810	2.6216e-10
 0.27864	2.6058e-10
 0.27918	2.5901e-10
 0.27972	2.5744e-10
 0.28026	2.5589e-10
 0.28080	2.5434e-10
 0.28134	2.5280e-10
 0.28188	2.5127e-10
 0.28242	2.4974e-10
 0.28296	2.4822e-10
 0.28350	2.4670e-10
 0.28404	2.4521e-10
 0.28458	2.4372e-10
 0.28512	2.4225e-10
 0.28566	2.4080e-10
 0.28620	2.3934e-10
 0.28674	2.3790e-10
 0.28728	2.3646e-10
 0.28782	2.3503e-10
 0.28836	2.3363e-10
 0.28890	2.3223e-10
 0.28944	2.3084e-10
 0.28998	2.2945e-10
 0.29052	2.2806e-10
 0.29106	2.2667e-10
 0.29160	2.2530e-10
 0.29214	2.2394e-10
 0.29268	2.2258e-10
 0.29322	2.2123e-10
 0.29376	2.1989e-10
 0.29430	2.1856e-10
 0.29484	2.1723e-10
 0.29538	2.1592e-10
 0.29592	2.1462e-10
 0.29646	2.1331e-10
 0.29700	2.1201e-10
 0.29754	2.1071e-10
 0.29808	2.0943e-10
 0.29862	2.0815e-10
 0.29916	2.0690e-10
 0.29970	2.0565e-10
 0.30024	2.0441e-10
 0.30078	2.0318e-10
 0.30132	2.0196e-10
 0.30186	2.0074e-10
 0.30240	1.9954e-10
 0.30294	1.9834e-10
 0.30348	1.9714e-10
 0.30402	1.9594e-10
 0.30456	1.9474e-10
 0.30510	1.9355e-10
 0.30564	1.9237e-10
 0.30618	1.9120e-10
 0.30672	1.9005e-10
 0.30726	1.8890e-10
 0.30780	1.8777e-10
 0.30834	1.8664e-10
 0.30888	1.8553e-10
 0.30942	1.8441e-10
 0.30996	1.8329e-10
 0.31050	1.8217e-10
 0.31104	1.8105e-10
 0.31158	1.7995e-10
 0.31212	1.7887e-10
 0.31266	1.7779e-10
 0.31320	1.7673e-10
 0.31374	1.7566e-10
 0.31428	1.7458e-10
 0.31482	1.7351e-10
 0.31536	1.7245e-10
 0.31590	1.7141e-10
 0.31644	1.7038e-10
 0.31698	1.6936e-10
 0.31752	1.6835e-10
 0.31806	1.6734e-10
 0.31860	1.6634e-10
 0.31914	1.6534e-10
 0.31968	1.6434e-10
 0.32022	1.6334e-10
 0.32076	1.6235e-10
 0.32130	1.6136e-10
 0.32184	1.6038e-10
 0.32238	1.5941e-10
 0.32292	1.5845e-10
 0.32346	1.5749e-10
 0.32400	1.5655e-10
 0.32454	1.5560e-10
 0.32508	1.5466e-10
 0.32562	1.5373e-10
 0.32616	1.5279e-10
 0.32670	1.5187e-10
 0.32724	1.5096e-10
 0.32778	1.5006e-10
 0.32832	1.4916e-10
 0.32886	1.4825e-10
 0.32940	1.4735e-10
 0.32994	1.4645e-10
 0.33048	1.4558e-10
 0.33102	1.4471e-10
 0.33156	1.4385e-10
 0.33210	1.4300e-10
 0.33264	1.4215e-10
 0.33318	1.4129e-10
 0.33372	1.4044e-10
 0.33426	1.3959e-10
 0.33480	1.3874e-10
 0.33534	1.3791e-10
 0.33588	1.3707e-10
 0.33642	1.3625e-10
 0.33696	1.3544e-10
 0.33750	1.3463e-10
 0.33804	1.3383e-10
 0.33858	1.3303e-10
 0.33912	1.3224e-10
 0.33966	1.3145e-10
 0.34020	1.3066e-10
 0.34074	1.2988e-10
 0.34128	1.2909e-10
 0.34182	1.2831e-10
 0.34236	1.2754e-10
 0.34290	1.2678e-10
 0.34344	1.2603e-10
 0.34398	1.2528e-10
 0.34452	1.2452e-10
 0.34506	1.2376e-10
 0.34560	1.2301e-10
 0.34614	1.2227e-10
 0.34668	1.2154e-10
 0.34722	1.2083e-10
 0.34776	1.2013e-10
 0.34830	1.1942e-10
 0.34884	1.1870e-10
 0.34938	1.1799e-10
 0.34992	1.1727e-10
 0.35046	1.1656e-10
 0.35100	1.1586e-10
 0.35154	1.1518e-10
 0.35208	1.1450e-10
 0.35262	1.1384e-10
 0.35316	1.1317e-10
 0.35370	1.1249e-10
 0.35424	1.1182e-10
 0.35478	1.1116e-10
 0.35532	1.1052e-10
 0.35586	1.0987e-10
 0.35640	1.0924e-10
 0.35694	1.0859e-10
 0.35748	1.0794e-10
 0.35802	1.0731e-10
 0.35856	1.0667e-10
 0.35910	1.0604e-10
 0.35964	1.0542e-10
 0.36018	1.0480e-10
 0.36072	1.0418e-10
 0.36126	1.0356e-10
 0.36180	1.0294e-10
 0.36234	1.0234e-10
 0.36288	1.0173e-10
 0.36342	1.0113e-10
 0.36396	1.0052e-10
 0.36450	9.9918e-11
 0.36504	9.9323e-11
 0.36558	9.8741e-11
 0.36612	9.8177e-11
 0.36666	9.7628e-11
 0.36720	9.7084e-11
 0.36774	9.6537e-11
 0.36828	9.5980e-11
 0.36882	9.5409e-11
 0.36936	9.4835e-11
 0.36990	9.4260e-11
 0.37044	9.3695e-11
 0.37098	9.3143e-11
 0.37152	9.2603e-11
 0.37206	9.2068e-11
 0.37260	9.1537e-11
 0.37314	9.1007e-11
 0.37368	9.0477e-11
 0.37422	8.9948e-11
 0.37476	8.9423e-11
 0.37530	8.8897e-11
 0.37584	8.8376e-11
 0.37638	8.7863e-11
 0.37692	8.7354e-11
 0.37746	8.6850e-11
 0.37800	8.6347e-11
 0.37854	8.5848e-11
 0.37908	8.5358e-11
 0.37962	8.4875e-11
 0.38016	8.4404e-11
 0.38070	8.3939e-11
 0.38124	8.3468e-11
 0.38178	8.2986e-11
 0.38232	8.2494e-11
 0.38286	8.1995e-11
 0.38340	8.1498e-11
 0.38394	8.1013e-11
 0.38448	8.0541e-11
 0.38502	8.0085e-11
 0.38556	7.9636e-11
 0.38610	7.9186e-11
 0.38664	7.8733e-11
 0.38718	7.8278e-11
 0.38772	7.7825e-11
 0.38826	7.7378e-11
 0.38880	7.6940e-11
 0.38934	7.6503e-11
 0.38988	7.6067e-11
 0.39042	7.5633e-11
 0.39096	7.5197e-11
 0.39150	7.4763e-11
 0.39204	7.4337e-11
 0.39258	7.3920e-11
 0.39312	7.3509e-11
 0.39366	7.3100e-11
 0.39420	7.2697e-11
 0.39474	7.2288e-11
 0.39528	7.1878e-11
 0.39582	7.1464e-11
 0.39636	7.1049e-11
 0.39690	7.0634e-11
 0.39744	7.0225e-11
 0.39798	6.9821e-11
 0.39852	6.9423e-11
 0.39906	6.9026e-11
 0.39960	6.8638e-11
 0.40014	6.8262e-11
 0.40068	6.7893e-11
 0.40122	6.7525e-11
 0.40176	6.7154e-11
 0.40230	6.6778e-11
 0.40284	6.6399e-11
 0.40338	6.6019e-11
 0.40392	6.5644e-11
 0.40446	6.5275e-11
 0.40500	6.4909e-11
 0.40554	6.4548e-11
 0.40608	6.4195e-11
 0.40662	6.3844e-11
 0.40716	6.3495e-11
 0.40770	6.3150e-11
 0.40824	6.2804e-11
 0.40878	6.2459e-11
 0.40932	6.2109e-11
 0.40986	6.1758e-11
 0.41040	6.1407e-11
 0.41094	6.1066e-11
 0.41148	6.0735e-11
 0.41202	6.0408e-11
 0.41256	6.0084e-11
 0.41310	5.9755e-11
 0.41364	5.9425e-11
 0.41418	5.9090e-11
 0.41472	5.8760e-11
 0.41526	5.8436e-11
 0.41580	5.8116e-11
 0.41634	5.7801e-11
 0.41688	5.7489e-11
 0.41742	5.7180e-11
 0.41796	5.6872e-11
 0.41850	5.6568e-11
 0.41904	5.6261e-11
 0.41958	5.5950e-11
 0.42012	5.5637e-11
 0.42066	5.5332e-11
 0.42120	5.5030e-11
 0.42174	5.4735e-11
 0.42228	5.4441e-11
 0.42282	5.4149e-11
 0.42336	5.3859e-11
 0.42390	5.3577e-11
 0.42444	5.3298e-11
 0.42498	5.3021e-11
 0.42552	5.2736e-11
 0.42606	5.2449e-11
 0.42660	5.2162e-11
 0.42714	5.1885e-11
 0.42768	5.1613e-11
 0.42822	5.1351e-11
 0.42876	5.1090e-11
 0.42930	5.0828e-11
 0.42984	5.0562e-11
 0.43038	5.0291e-11
 0.43092	5.0014e-11
 0.43146	4.9733e-11
 0.43200	4.9458e-11
 0.43254	4.9199e-11
 0.43308	4.8953e-11
 0.43362	4.8711e-11
 0.43416	4.8469e-11
 0.43470	4.8221e-11
 0.43524	4.7970e-11
 0.43578	4.7710e-11
 0.43632	4.7453e-11
 0.43686	4.7192e-11
 0.43740	4.6933e-11
 0.43794	4.6676e-11
 0.43848	4.6430e-11
 0.43902	4.6196e-11
 0.43956	4.5975e-11
 0.44010	4.5756e-11
 0.44064	4.5534e-11
 0.44118	4.5305e-11
 0.44172	4.5065e-11
 0.44226	4.4826e-11
 0.44280	4.4588e-11
 0.44334	4.4351e-11
 0.44388	4.4110e-11
 0.44442	4.3867e-11
 0.44496	4.3629e-11
 0.44550	4.3406e-11
 0.44604	4.3193e-11
 0.44658	4.2994e-11
 0.44712	4.2793e-11
 0.44766	4.2582e-11
 0.44820	4.2352e-11
 0.44874	4.2122e-11
 0.44928	4.1897e-11
 0.44982	4.1690e-11
 0.45036	4.1496e-11
 0.45090	4.1315e-11
 0.45144	4.1135e-11
 0.45198	4.0953e-11
 0.45252	4.0755e-11
 0.45306	4.0545e-11
 0.45360	4.0323e-11
 0.45414	4.0103e-11
 0.45468	3.9887e-11
 0.45522	3.9686e-11
 0.45576	3.9498e-11
 0.45630	3.9313e-11
 0.45684	3.9133e-11
 0.45738	3.8943e-11
 0.45792	3.8748e-11
 0.45846	3.8546e-11
 0.45900	3.8340e-11
 0.45954	3.8139e-11
 0.46008	3.7948e-11
 0.46062	3.7771e-11
 0.46116	3.7604e-11
 0.46170	3.7443e-11
 0.46224	3.7274e-11
 0.46278	3.7102e-11
 0.46332	3.6929e-11
 0.46386	3.6756e-11
 0.46440	3.6581e-11
 0.46494	3.6399e-11
 0.46548	3.6215e-11
 0.46602	3.6029e-11
 0.46656	3.5849e-11
 0.46710	3.5676e-11
 0.46764	3.5507e-11
 0.46818	3.5336e-11
 0.46872	3.5170e-11
 0.46926	3.5012e-11
 0.46980	3.4858e-11
 0.47034	3.4700e-11
 0.47088	3.4533e-11
 0.47142	3.4366e-11
 0.47196	3.4207e-11
 0.47250	3.4058e-11
 0.47304	3.3914e-11
 0.47358	3.3762e-11
 0.47412	3.3595e-11
 0.47466	3.3418e-11
 0.47520	3.3235e-11
 0.47574	3.3057e-11
 0.47628	3.2884e-11
 0.47682	3.2724e-11
 0.47736	3.2576e-11
 0.47790	3.2432e-11
 0.47844	3.2289e-11
 0.47898	3.2145e-11
 0.47952	3.2010e-11
 0.48006	3.1878e-11
 0.48060	3.1750e-11
 0.48114	3.1626e-11
 0.48168	3.1501e-11
 0.48222	3.1373e-11
 0.48276	3.1233e-11
 0.48330	3.1090e-11
 0.48384	3.0946e-11
 0.48438	3.0801e-11
 0.48492	3.0652e-11
 0.48546	3.0504e-11
 0.48600	3.0362e-11
 0.48654	3.0226e-11
 0.48708	3.0093e-11
 0.48762	2.9958e-11
 0.48816	2.9816e-11
 0.48870	2.9668e-11
 0.48924	2.9519e-11
 0.48978	2.9373e-11
 0.49032	2.9238e-11
 0.49086	2.9113e-11
 0.49140	2.8997e-11
 0.49194	2.8881e-11
 0.49248	2.8769e-11
 0.49302	2.8650e-11
 0.49356	2.8538e-11
 0.49410	2.8428e-11
 0.49464	2.8321e-11
 0.49518	2.8218e-11
 0.49572	2.8114e-11
 0.49626	2.8001e-11
 0.49680	2.7881e-11
 0.49734	2.7753e-11
 0.49788	2.7620e-11
 0.49842	2.7495e-11
 0.49896	2.7374e-11
 0.49950	2.7258e-11
 0.50004	2.7139e-11
 0.50058	2.7015e-11
 0.50112	2.6896e-11
 0.50166	2.6778e-11
 0.50220	2.6666e-11
 0.50274	2.6552e-11
 0.50328	2.6441e-11
 0.50382	2.6330e-11
 0.50436	2.6223e-11
 0.50490	2.6118e-11
 0.50544	2.6015e-11
 0.50598	2.5916e-11
 0.50652	2.5813e-11
 0.50706	2.5712e-11
 0.50760	2.5607e-11
 0.50814	2.5506e-11
 0.50868	2.5399e-11
 0.50922	2.5307e-11
 0.50976	2.5220e-11
 0.51030	2.5132e-11
 0.51084	2.5035e-11
 0.51138	2.4922e-11
 0.51192	2.4803e-11
 0.51246	2.4684e-11
 0.51300	2.4580e-11
 0.51354	2.4493e-11
 0.51408	2.4419e-11
 0.51462	2.4346e-11
 0.51516	2.4265e-11
 0.51570	2.4180e-11
 0.51624	2.4085e-11
 0.51678	2.3994e-11
 0.51732	2.3905e-11
 0.51786	2.3811e-11
 0.51840	2.3707e-11
 0.51894	2.3597e-11
 0.51948	2.3488e-11
 0.52002	2.3387e-11
 0.52056	2.3290e-11
 0.52110	2.3200e-11
 0.52164	2.3109e-11
 0.52218	2.3023e-11
 0.52272	2.2937e-11
 0.52326	2.2863e-11
 0.52380	2.2786e-11
 0.52434	2.2711e-11
 0.52488	2.2624e-11
 0.52542	2.2545e-11
 0.52596	2.2464e-11
 0.52650	2.2387e-11
 0.52704	2.2310e-11
 0.52758	2.2231e-11
 0.52812	2.2139e-11
 0.52866	2.2058e-11
 0.52920	2.1978e-11
 0.52974	2.1907e-11
 0.53028	2.1836e-11
 0.53082	2.1761e-11
 0.53136	2.1683e-11
 0.53190	2.1608e-11
 0.53244	2.1538e-11
 0.53298	2.1470e-11
 0.53352	2.1400e-11
 0.53406	2.1322e-11
 0.53460	2.1241e-11
 0.53514	2.1147e-11
 0.53568	2.1060e-11
 0.53622	2.0976e-11
 0.53676	2.0904e-11
 0.53730	2.0834e-11
 0.53784	2.0764e-11
 0.53838	2.0686e-11
 0.53892	2.0608e-11
