Time	Current
 0.00000	2.8977e-09
 0.00054	3.6302e-09
 0.00108	4.3815e-09
 0.00162	5.0592e-09
 0.00216	5.5482e-09
 0.00270	5.7697e-09
 0.00324	5.7385e-09
 0.00378	5.4123e-09
 0.00432	4.9411e-09
 0.00486	4.3931e-09
 0.00540	3.9060e-09
 0.00594	3.6281e-09
 0.00648	3.6458e-09
 0.00702	3.9017e-09
 0.00756	4.2626e-09
 0.00810	4.6072e-09
 0.00864	4.8825e-09
 0.00918	5.0891e-09
 0.00972	5.2262e-09
 0.01026	5.3227e-09
 0.01080	5.3879e-09
 0.01134	5.4283e-09
 0.01188	5.4498e-09
 0.01242	5.4520e-09
 0.01296	5.4287e-09
 0.01350	5.3229e-09
 0.01404	5.1007e-09
 0.01458	4.7149e-09
 0.01512	4.1661e-09
 0.01566	3.5268e-09
 0.01620	2.9067e-09
 0.01674	2.4006e-09
 0.01728	2.0426e-09
 0.01782	1.8159e-09
 0.01836	1.6854e-09
 0.01890	1.6138e-09
 0.01944	1.5723e-09
 0.01998	1.5503e-09
 0.02052	1.5369e-09
 0.02106	1.5271e-09
 0.02160	1.5211e-09
 0.02214	1.5223e-09
 0.02268	1.5314e-09
 0.02322	1.5462e-09
 0.02376	1.5626e-09
 0.02430	1.5799e-09
 0.02484	1.5959e-09
 0.02538	1.6105e-09
 0.02592	1.6237e-09
 0.02646	1.6359e-09
 0.02700	1.6468e-09
 0.02754	1.6567e-09
 0.02808	1.6656e-09
 0.02862	1.6737e-09
 0.02916	1.6808e-09
 0.02970	1.6871e-09
 0.03024	1.6926e-09
 0.03078	1.6974e-09
 0.03132	1.7015e-09
 0.03186	1.7050e-09
 0.03240	1.7078e-09
 0.03294	1.7101e-09
 0.03348	1.7119e-09
 0.03402	1.7131e-09
 0.03456	1.7139e-09
 0.03510	1.7142e-09
 0.03564	1.7141e-09
 0.03618	1.7136e-09
 0.03672	1.7126e-09
 0.03726	1.7114e-09
 0.03780	1.7098e-09
 0.03834	1.7078e-09
 0.03888	1.7056e-09
 0.03942	1.7029e-09
 0.03996	1.6999e-09
 0.04050	1.6963e-09
 0.04104	1.6923e-09
 0.04158	1.6878e-09
 0.04212	1.6832e-09
 0.04266	1.6785e-09
 0.04320	1.6741e-09
 0.04374	1.6700e-09
 0.04428	1.6660e-09
 0.04482	1.6622e-09
 0.04536	1.6582e-09
 0.04590	1.6540e-09
 0.04644	1.6494e-09
 0.04698	1.6444e-09
 0.04752	1.6390e-09
 0.04806	1.6333e-09
 0.04860	1.6273e-09
 0.04914	1.6214e-09
 0.04968	1.6153e-09
 0.05022	1.6093e-09
 0.05076	1.6033e-09
 0.05130	1.5972e-09
 0.05184	1.5911e-09
 0.05238	1.5850e-09
 0.05292	1.5788e-09
 0.05346	1.5726e-09
 0.05400	1.5664e-09
 0.05454	1.5602e-09
 0.05508	1.5541e-09
 0.05562	1.5480e-09
 0.05616	1.5420e-09
 0.05670	1.5359e-09
 0.05724	1.5296e-09
 0.05778	1.5231e-09
 0.05832	1.5164e-09
 0.05886	1.5096e-09
 0.05940	1.5028e-09
 0.05994	1.4959e-09
 0.06048	1.4890e-09
 0.06102	1.4821e-09
 0.06156	1.4752e-09
 0.06210	1.4683e-09
 0.06264	1.4613e-09
 0.06318	1.4544e-09
 0.06372	1.4475e-09
 0.06426	1.4406e-09
 0.06480	1.4337e-09
 0.06534	1.4268e-09
 0.06588	1.4199e-09
 0.06642	1.4130e-09
 0.06696	1.4062e-09
 0.06750	1.3993e-09
 0.06804	1.3925e-09
 0.06858	1.3857e-09
 0.06912	1.3789e-09
 0.06966	1.3721e-09
 0.07020	1.3653e-09
 0.07074	1.3585e-09
 0.07128	1.3518e-09
 0.07182	1.3451e-09
 0.07236	1.3384e-09
 0.07290	1.3317e-09
 0.07344	1.3250e-09
 0.07398	1.3184e-09
 0.07452	1.3118e-09
 0.07506	1.3052e-09
 0.07560	1.2986e-09
 0.07614	1.2920e-09
 0.07668	1.2855e-09
 0.07722	1.2790e-09
 0.07776	1.2725e-09
 0.07830	1.2660e-09
 0.07884	1.2595e-09
 0.07938	1.2531e-09
 0.07992	1.2467e-09
 0.08046	1.2403e-09
 0.08100	1.2340e-09
 0.08154	1.2276e-09
 0.08208	1.2213e-09
 0.08262	1.2150e-09
 0.08316	1.2088e-09
 0.08370	1.2025e-09
 0.08424	1.1963e-09
 0.08478	1.1901e-09
 0.08532	1.1839e-09
 0.08586	1.1778e-09
 0.08640	1.1717e-09
 0.08694	1.1656e-09
 0.08748	1.1595e-09
 0.08802	1.1535e-09
 0.08856	1.1475e-09
 0.08910	1.1415e-09
 0.08964	1.1355e-09
 0.09018	1.1296e-09
 0.09072	1.1236e-09
 0.09126	1.1178e-09
 0.09180	1.1119e-09
 0.09234	1.1060e-09
 0.09288	1.1002e-09
 0.09342	1.0944e-09
 0.09396	1.0887e-09
 0.09450	1.0829e-09
 0.09504	1.0772e-09
 0.09558	1.0715e-09
 0.09612	1.0659e-09
 0.09666	1.0602e-09
 0.09720	1.0546e-09
 0.09774	1.0490e-09
 0.09828	1.0434e-09
 0.09882	1.0379e-09
 0.09936	1.0324e-09
 0.09990	1.0269e-09
 0.10044	1.0214e-09
 0.10098	1.0160e-09
 0.10152	1.0106e-09
 0.10206	1.0052e-09
 0.10260	9.9979e-10
 0.10314	9.9445e-10
 0.10368	9.8914e-10
 0.10422	9.8385e-10
 0.10476	9.7858e-10
 0.10530	9.7334e-10
 0.10584	9.6812e-10
 0.10638	9.6293e-10
 0.10692	9.5775e-10
 0.10746	9.5261e-10
 0.10800	9.4749e-10
 0.10854	9.4239e-10
 0.10908	9.3732e-10
 0.10962	9.3227e-10
 0.11016	9.2724e-10
 0.11070	9.2224e-10
 0.11124	9.1726e-10
 0.11178	9.1230e-10
 0.11232	9.0738e-10
 0.11286	9.0247e-10
 0.11340	8.9760e-10
 0.11394	8.9274e-10
 0.11448	8.8791e-10
 0.11502	8.8310e-10
 0.11556	8.7832e-10
 0.11610	8.7355e-10
 0.11664	8.6881e-10
 0.11718	8.6409e-10
 0.11772	8.5939e-10
 0.11826	8.5472e-10
 0.11880	8.5008e-10
 0.11934	8.4546e-10
 0.11988	8.4086e-10
 0.12042	8.3628e-10
 0.12096	8.3172e-10
 0.12150	8.2719e-10
 0.12204	8.2267e-10
 0.12258	8.1818e-10
 0.12312	8.1371e-10
 0.12366	8.0926e-10
 0.12420	8.0484e-10
 0.12474	8.0044e-10
 0.12528	7.9606e-10
 0.12582	7.9171e-10
 0.12636	7.8738e-10
 0.12690	7.8307e-10
 0.12744	7.7879e-10
 0.12798	7.7453e-10
 0.12852	7.7029e-10
 0.12906	7.6607e-10
 0.12960	7.6187e-10
 0.13014	7.5768e-10
 0.13068	7.5352e-10
 0.13122	7.4939e-10
 0.13176	7.4527e-10
 0.13230	7.4119e-10
 0.13284	7.3712e-10
 0.13338	7.3308e-10
 0.13392	7.2907e-10
 0.13446	7.2507e-10
 0.13500	7.2110e-10
 0.13554	7.1715e-10
 0.13608	7.1322e-10
 0.13662	7.0932e-10
 0.13716	7.0544e-10
 0.13770	7.0159e-10
 0.13824	6.9776e-10
 0.13878	6.9395e-10
 0.13932	6.9016e-10
 0.13986	6.8640e-10
 0.14040	6.8266e-10
 0.14094	6.7895e-10
 0.14148	6.7525e-10
 0.14202	6.7158e-10
 0.14256	6.6794e-10
 0.14310	6.6432e-10
 0.14364	6.6072e-10
 0.14418	6.5714e-10
 0.14472	6.5358e-10
 0.14526	6.5004e-10
 0.14580	6.4652e-10
 0.14634	6.4303e-10
 0.14688	6.3955e-10
 0.14742	6.3610e-10
 0.14796	6.3266e-10
 0.14850	6.2925e-10
 0.14904	6.2587e-10
 0.14958	6.2254e-10
 0.15012	6.1928e-10
 0.15066	6.1608e-10
 0.15120	6.1293e-10
 0.15174	6.0981e-10
 0.15228	6.0671e-10
 0.15282	6.0362e-10
 0.15336	6.0054e-10
 0.15390	5.9748e-10
 0.15444	5.9445e-10
 0.15498	5.9144e-10
 0.15552	5.8846e-10
 0.15606	5.8551e-10
 0.15660	5.8260e-10
 0.15714	5.7971e-10
 0.15768	5.7687e-10
 0.15822	5.7405e-10
 0.15876	5.7126e-10
 0.15930	5.6851e-10
 0.15984	5.6579e-10
 0.16038	5.6311e-10
 0.16092	5.6046e-10
 0.16146	5.5783e-10
 0.16200	5.5524e-10
 0.16254	5.5269e-10
 0.16308	5.5017e-10
 0.16362	5.4768e-10
 0.16416	5.4524e-10
 0.16470	5.4285e-10
 0.16524	5.4050e-10
 0.16578	5.3818e-10
 0.16632	5.3589e-10
 0.16686	5.3360e-10
 0.16740	5.3132e-10
 0.16794	5.2906e-10
 0.16848	5.2685e-10
 0.16902	5.2468e-10
 0.16956	5.2255e-10
 0.17010	5.2046e-10
 0.17064	5.2089e-10
 0.17118	5.2583e-10
 0.17172	5.3718e-10
 0.17226	5.5572e-10
 0.17280	5.7929e-10
 0.17334	6.0406e-10
 0.17388	6.2782e-10
 0.17442	6.5170e-10
 0.17496	6.7858e-10
 0.17550	7.1027e-10
 0.17604	7.4624e-10
 0.17658	7.8512e-10
 0.17712	8.2528e-10
 0.17766	8.6551e-10
 0.17820	9.0529e-10
 0.17874	9.4445e-10
 0.17928	9.8313e-10
 0.17982	1.0216e-09
 0.18036	1.0602e-09
 0.18090	1.0994e-09
 0.18144	1.1393e-09
 0.18198	1.1798e-09
 0.18252	1.2203e-09
 0.18306	1.2598e-09
 0.18360	1.2969e-09
 0.18414	1.3301e-09
 0.18468	1.3580e-09
 0.18522	1.3796e-09
 0.18576	1.3944e-09
 0.18630	1.4025e-09
 0.18684	1.4041e-09
 0.18738	1.3994e-09
 0.18792	1.3889e-09
 0.18846	1.3722e-09
 0.18900	1.3672e-09
 0.18954	1.3927e-09
 0.19008	1.4717e-09
 0.19062	1.6189e-09
 0.19116	1.8226e-09
 0.19170	2.0453e-09
 0.19224	2.2449e-09
 0.19278	2.3976e-09
 0.19332	2.5039e-09
 0.19386	2.5777e-09
 0.19440	2.6323e-09
 0.19494	2.6789e-09
 0.19548	2.7228e-09
 0.19602	2.7655e-09
 0.19656	2.8073e-09
 0.19710	2.8484e-09
 0.19764	2.8887e-09
 0.19818	2.9284e-09
 0.19872	2.9674e-09
 0.19926	3.0057e-09
 0.19980	3.0434e-09
 0.20034	3.0805e-09
 0.20088	3.1170e-09
 0.20142	3.1530e-09
 0.20196	3.1884e-09
 0.20250	3.2233e-09
 0.20304	3.2577e-09
 0.20358	3.2916e-09
 0.20412	3.3250e-09
 0.20466	3.3579e-09
 0.20520	3.3903e-09
 0.20574	3.4223e-09
 0.20628	3.4539e-09
 0.20682	3.4850e-09
 0.20736	3.5157e-09
 0.20790	3.5461e-09
 0.20844	3.5760e-09
 0.20898	3.6056e-09
 0.20952	3.6348e-09
 0.21006	3.6637e-09
 0.21060	3.6922e-09
 0.21114	3.7204e-09
 0.21168	3.7483e-09
 0.21222	3.7758e-09
 0.21276	3.8030e-09
 0.21330	3.8299e-09
 0.21384	3.8565e-09
 0.21438	3.8828e-09
 0.21492	3.9088e-09
 0.21546	3.9345e-09
 0.21600	3.9599e-09
 0.21654	3.9851e-09
 0.21708	4.0099e-09
 0.21762	4.0346e-09
 0.21816	4.0589e-09
 0.21870	4.0831e-09
 0.21924	4.1069e-09
 0.21978	4.1306e-09
 0.22032	4.1540e-09
 0.22086	4.1772e-09
 0.22140	4.2002e-09
 0.22194	4.2231e-09
 0.22248	4.2457e-09
 0.22302	4.2681e-09
 0.22356	4.2904e-09
 0.22410	4.3124e-09
 0.22464	4.3342e-09
 0.22518	4.3559e-09
 0.22572	4.3774e-09
 0.22626	4.3987e-09
 0.22680	4.4198e-09
 0.22734	4.4407e-09
 0.22788	4.4615e-09
 0.22842	4.4821e-09
 0.22896	4.5025e-09
 0.22950	4.5228e-09
 0.23004	4.5429e-09
 0.23058	4.5629e-09
 0.23112	4.5827e-09
 0.23166	4.6023e-09
 0.23220	4.6218e-09
 0.23274	4.6411e-09
 0.23328	4.6603e-09
 0.23382	4.6794e-09
 0.23436	4.6983e-09
 0.23490	4.7171e-09
 0.23544	4.7358e-09
 0.23598	4.7544e-09
 0.23652	4.7731e-09
 0.23706	4.7918e-09
 0.23760	4.8106e-09
 0.23814	4.8291e-09
 0.23868	4.8470e-09
 0.23922	4.8641e-09
 0.23976	4.8803e-09
 0.24030	4.8960e-09
 0.24084	4.9117e-09
 0.24138	4.9277e-09
 0.24192	4.9441e-09
 0.24246	4.9606e-09
 0.24300	4.9771e-09
 0.24354	4.9937e-09
 0.24408	5.0101e-09
 0.24462	5.0265e-09
 0.24516	5.0427e-09
 0.24570	5.0589e-09
 0.24624	5.0748e-09
 0.24678	5.0907e-09
 0.24732	5.1065e-09
 0.24786	5.1222e-09
 0.24840	5.1379e-09
 0.24894	5.1535e-09
 0.24948	5.1690e-09
 0.25002	5.1844e-09
 0.25056	5.1997e-09
 0.25110	5.2149e-09
 0.25164	5.2300e-09
 0.25218	5.2450e-09
 0.25272	5.2599e-09
 0.25326	5.2747e-09
 0.25380	5.2895e-09
 0.25434	5.3041e-09
 0.25488	5.3187e-09
 0.25542	5.3324e-09
 0.25596	5.3431e-09
 0.25650	5.3474e-09
 0.25704	5.3410e-09
 0.25758	5.3204e-09
 0.25812	5.2847e-09
 0.25866	5.2357e-09
 0.25920	5.1773e-09
 0.25974	5.1129e-09
 0.26028	5.0449e-09
 0.26082	4.9745e-09
 0.26136	4.9019e-09
 0.26190	4.8272e-09
 0.26244	4.7502e-09
 0.26298	4.6707e-09
 0.26352	4.5885e-09
 0.26406	4.5035e-09
 0.26460	4.4154e-09
 0.26514	4.3248e-09
 0.26568	4.2335e-09
 0.26622	4.1439e-09
 0.26676	4.0593e-09
 0.26730	3.9824e-09
 0.26784	3.9136e-09
 0.26838	3.8512e-09
 0.26892	3.7922e-09
 0.26946	3.7344e-09
 0.27000	3.6762e-09
 0.27054	3.6167e-09
 0.27108	3.5558e-09
 0.27162	3.4932e-09
 0.27216	3.4290e-09
 0.27270	3.3629e-09
 0.27324	3.2948e-09
 0.27378	3.2246e-09
 0.27432	3.1522e-09
 0.27486	3.0775e-09
 0.27540	3.0004e-09
 0.27594	2.9205e-09
 0.27648	2.8378e-09
 0.27702	2.7520e-09
 0.27756	2.6627e-09
 0.27810	2.5698e-09
 0.27864	2.4729e-09
 0.27918	2.3716e-09
 0.27972	2.2655e-09
 0.28026	2.1543e-09
 0.28080	2.0372e-09
 0.28134	1.9136e-09
 0.28188	1.7827e-09
 0.28242	1.6437e-09
 0.28296	1.4971e-09
 0.28350	1.3446e-09
 0.28404	1.1890e-09
 0.28458	1.0335e-09
 0.28512	8.7975e-10
 0.28566	7.2838e-10
 0.28620	5.8120e-10
 0.28674	4.4299e-10
 0.28728	3.2216e-10
 0.28782	2.2760e-10
 0.28836	1.6354e-10
 0.28890	1.2706e-10
 0.28944	1.1026e-10
 0.28998	1.0459e-10
 0.29052	1.0395e-10
 0.29106	1.0497e-10
 0.29160	1.0627e-10
 0.29214	1.0756e-10
 0.29268	1.0884e-10
 0.29322	1.1010e-10
 0.29376	1.1135e-10
 0.29430	1.1258e-10
 0.29484	1.1378e-10
 0.29538	1.1497e-10
 0.29592	1.1613e-10
 0.29646	1.1727e-10
 0.29700	1.1839e-10
 0.29754	1.1950e-10
 0.29808	1.2061e-10
 0.29862	1.2172e-10
 0.29916	1.2282e-10
 0.29970	1.2391e-10
 0.30024	1.2496e-10
 0.30078	1.2598e-10
 0.30132	1.2694e-10
 0.30186	1.2785e-10
 0.30240	1.2872e-10
 0.30294	1.2953e-10
 0.30348	1.3030e-10
 0.30402	1.3103e-10
 0.30456	1.3172e-10
 0.30510	1.3237e-10
 0.30564	1.3297e-10
 0.30618	1.3352e-10
 0.30672	1.3403e-10
 0.30726	1.3448e-10
 0.30780	1.3487e-10
 0.30834	1.3522e-10
 0.30888	1.3552e-10
 0.30942	1.3578e-10
 0.30996	1.3601e-10
 0.31050	1.3620e-10
 0.31104	1.3637e-10
 0.31158	1.3651e-10
 0.31212	1.3661e-10
 0.31266	1.3669e-10
 0.31320	1.3674e-10
 0.31374	1.3677e-10
 0.31428	1.3677e-10
 0.31482	1.3676e-10
 0.31536	1.3672e-10
 0.31590	1.3666e-10
 0.31644	1.3658e-10
 0.31698	1.3649e-10
 0.31752	1.3637e-10
 0.31806	1.3625e-10
 0.31860	1.3611e-10
 0.31914	1.3596e-10
 0.31968	1.3580e-10
 0.32022	1.3562e-10
 0.32076	1.3543e-10
 0.32130	1.3522e-10
 0.32184	1.3499e-10
 0.32238	1.3476e-10
 0.32292	1.3451e-10
 0.32346	1.3426e-10
 0.32400	1.3401e-10
 0.32454	1.3374e-10
 0.32508	1.3346e-10
 0.32562	1.3317e-10
 0.32616	1.3287e-10
 0.32670	1.3256e-10
 0.32724	1.3225e-10
 0.32778	1.3193e-10
 0.32832	1.3159e-10
 0.32886	1.3124e-10
 0.32940	1.3089e-10
 0.32994	1.3052e-10
 0.33048	1.3016e-10
 0.33102	1.2980e-10
 0.33156	1.2944e-10
 0.33210	1.2909e-10
 0.33264	1.2873e-10
 0.33318	1.2838e-10
 0.33372	1.2804e-10
 0.33426	1.2769e-10
 0.33480	1.2735e-10
 0.33534	1.2702e-10
 0.33588	1.2668e-10
 0.33642	1.2635e-10
 0.33696	1.2602e-10
 0.33750	1.2568e-10
 0.33804	1.2535e-10
 0.33858	1.2503e-10
 0.33912	1.2470e-10
 0.33966	1.2438e-10
 0.34020	1.2407e-10
 0.34074	1.2376e-10
 0.34128	1.2345e-10
 0.34182	1.2314e-10
 0.34236	1.2283e-10
 0.34290	1.2253e-10
 0.34344	1.2223e-10
 0.34398	1.2193e-10
 0.34452	1.2163e-10
 0.34506	1.2134e-10
 0.34560	1.2105e-10
 0.34614	1.2077e-10
 0.34668	1.2049e-10
 0.34722	1.2021e-10
 0.34776	1.1993e-10
 0.34830	1.1966e-10
 0.34884	1.1939e-10
 0.34938	1.1912e-10
 0.34992	1.1885e-10
 0.35046	1.1859e-10
 0.35100	1.1832e-10
 0.35154	1.1806e-10
 0.35208	1.1780e-10
 0.35262	1.1754e-10
 0.35316	1.1728e-10
 0.35370	1.1703e-10
 0.35424	1.1677e-10
 0.35478	1.1653e-10
 0.35532	1.1628e-10
 0.35586	1.1604e-10
 0.35640	1.1579e-10
 0.35694	1.1556e-10
 0.35748	1.1532e-10
 0.35802	1.1508e-10
 0.35856	1.1485e-10
 0.35910	1.1461e-10
 0.35964	1.1438e-10
 0.36018	1.1416e-10
 0.36072	1.1394e-10
 0.36126	1.1373e-10
 0.36180	1.1351e-10
 0.36234	1.1329e-10
 0.36288	1.1308e-10
 0.36342	1.1287e-10
 0.36396	1.1266e-10
 0.36450	1.1246e-10
 0.36504	1.1226e-10
 0.36558	1.1206e-10
 0.36612	1.1186e-10
 0.36666	1.1166e-10
 0.36720	1.1146e-10
 0.36774	1.1126e-10
 0.36828	1.1107e-10
 0.36882	1.1088e-10
 0.36936	1.1069e-10
 0.36990	1.1050e-10
 0.37044	1.1031e-10
 0.37098	1.1013e-10
 0.37152	1.0995e-10
 0.37206	1.0977e-10
 0.37260	1.0959e-10
 0.37314	1.0941e-10
 0.37368	1.0924e-10
 0.37422	1.0907e-10
 0.37476	1.0890e-10
 0.37530	1.0873e-10
 0.37584	1.0856e-10
 0.37638	1.0840e-10
 0.37692	1.0823e-10
 0.37746	1.0807e-10
 0.37800	1.0792e-10
 0.37854	1.0777e-10
 0.37908	1.0761e-10
 0.37962	1.0746e-10
 0.38016	1.0731e-10
 0.38070	1.0716e-10
 0.38124	1.0701e-10
 0.38178	1.0686e-10
 0.38232	1.0671e-10
 0.38286	1.0657e-10
 0.38340	1.0642e-10
 0.38394	1.0628e-10
 0.38448	1.0614e-10
 0.38502	1.0601e-10
 0.38556	1.0587e-10
 0.38610	1.0574e-10
 0.38664	1.0562e-10
 0.38718	1.0549e-10
 0.38772	1.0536e-10
 0.38826	1.0523e-10
 0.38880	1.0511e-10
 0.38934	1.0498e-10
 0.38988	1.0486e-10
 0.39042	1.0474e-10
 0.39096	1.0463e-10
 0.39150	1.0452e-10
 0.39204	1.0441e-10
 0.39258	1.0430e-10
 0.39312	1.0418e-10
 0.39366	1.0407e-10
 0.39420	1.0396e-10
 0.39474	1.0386e-10
 0.39528	1.0375e-10
 0.39582	1.0365e-10
 0.39636	1.0355e-10
 0.39690	1.0345e-10
 0.39744	1.0335e-10
 0.39798	1.0325e-10
 0.39852	1.0315e-10
 0.39906	1.0305e-10
 0.39960	1.0295e-10
 0.40014	1.0286e-10
 0.40068	1.0277e-10
 0.40122	1.0267e-10
 0.40176	1.0258e-10
 0.40230	1.0249e-10
 0.40284	1.0240e-10
 0.40338	1.0232e-10
 0.40392	1.0223e-10
 0.40446	1.0213e-10
 0.40500	1.0204e-10
 0.40554	1.0196e-10
 0.40608	1.0188e-10
 0.40662	1.0180e-10
 0.40716	1.0173e-10
 0.40770	1.0166e-10
 0.40824	1.0159e-10
 0.40878	1.0152e-10
 0.40932	1.0145e-10
 0.40986	1.0138e-10
 0.41040	1.0132e-10
 0.41094	1.0125e-10
 0.41148	1.0119e-10
 0.41202	1.0113e-10
 0.41256	1.0106e-10
 0.41310	1.0099e-10
 0.41364	1.0093e-10
 0.41418	1.0087e-10
 0.41472	1.0082e-10
 0.41526	1.0076e-10
 0.41580	1.0071e-10
 0.41634	1.0066e-10
 0.41688	1.0060e-10
 0.41742	1.0055e-10
 0.41796	1.0050e-10
 0.41850	1.0044e-10
 0.41904	1.0039e-10
 0.41958	1.0034e-10
 0.42012	1.0029e-10
 0.42066	1.0024e-10
 0.42120	1.0020e-10
 0.42174	1.0016e-10
 0.42228	1.0013e-10
 0.42282	1.0009e-10
 0.42336	1.0005e-10
 0.42390	1.0001e-10
 0.42444	9.9978e-11
 0.42498	9.9942e-11
 0.42552	9.9908e-11
 0.42606	9.9873e-11
 0.42660	9.9835e-11
 0.42714	9.9796e-11
 0.42768	9.9758e-11
 0.42822	9.9725e-11
 0.42876	9.9694e-11
 0.42930	9.9662e-11
 0.42984	9.9636e-11
 0.43038	9.9611e-11
 0.43092	9.9590e-11
 0.43146	9.9567e-11
 0.43200	9.9539e-11
 0.43254	9.9499e-11
 0.43308	9.9450e-11
 0.43362	9.9394e-11
 0.43416	9.9341e-11
 0.43470	9.9288e-11
 0.43524	9.9238e-11
 0.43578	9.9184e-11
 0.43632	9.9132e-11
 0.43686	9.9075e-11
 0.43740	9.9023e-11
 0.43794	9.8973e-11
 0.43848	9.8929e-11
 0.43902	9.8886e-11
 0.43956	9.8847e-11
 0.44010	9.8804e-11
 0.44064	9.8758e-11
 0.44118	9.8711e-11
 0.44172	9.8666e-11
 0.44226	9.8624e-11
 0.44280	9.8583e-11
 0.44334	9.8544e-11
 0.44388	9.8502e-11
 0.44442	9.8462e-11
 0.44496	9.8419e-11
 0.44550	9.8381e-11
 0.44604	9.8341e-11
 0.44658	9.8307e-11
 0.44712	9.8274e-11
 0.44766	9.8247e-11
 0.44820	9.8215e-11
 0.44874	9.8184e-11
 0.44928	9.8150e-11
 0.44982	9.8119e-11
 0.45036	9.8090e-11
 0.45090	9.8062e-11
 0.45144	9.8034e-11
 0.45198	9.8003e-11
 0.45252	9.7974e-11
 0.45306	9.7941e-11
 0.45360	9.7912e-11
 0.45414	9.7882e-11
 0.45468	9.7856e-11
 0.45522	9.7828e-11
 0.45576	9.7805e-11
 0.45630	9.7785e-11
 0.45684	9.7772e-11
 0.45738	9.7761e-11
 0.45792	9.7750e-11
 0.45846	9.7732e-11
 0.45900	9.7710e-11
 0.45954	9.7685e-11
 0.46008	9.7663e-11
 0.46062	9.7645e-11
 0.46116	9.7632e-11
 0.46170	9.7620e-11
 0.46224	9.7610e-11
 0.46278	9.7597e-11
 0.46332	9.7585e-11
 0.46386	9.7574e-11
 0.46440	9.7563e-11
 0.46494	9.7552e-11
 0.46548	9.7539e-11
 0.46602	9.7523e-11
 0.46656	9.7506e-11
 0.46710	9.7489e-11
 0.46764	9.7478e-11
 0.46818	9.7471e-11
 0.46872	9.7465e-11
 0.46926	9.7461e-11
 0.46980	9.7454e-11
 0.47034	9.7450e-11
 0.47088	9.7443e-11
 0.47142	9.7440e-11
 0.47196	9.7438e-11
 0.47250	9.7440e-11
 0.47304	9.7438e-11
 0.47358	9.7437e-11
 0.47412	9.7432e-11
 0.47466	9.7430e-11
 0.47520	9.7425e-11
 0.47574	9.7422e-11
 0.47628	9.7415e-11
 0.47682	9.7415e-11
 0.47736	9.7416e-11
 0.47790	9.7423e-11
 0.47844	9.7428e-11
 0.47898	9.7434e-11
 0.47952	9.7435e-11
 0.48006	9.7441e-11
 0.48060	9.7442e-11
 0.48114	9.7446e-11
 0.48168	9.7450e-11
 0.48222	9.7457e-11
 0.48276	9.7469e-11
 0.48330	9.7485e-11
 0.48384	9.7501e-11
 0.48438	9.7513e-11
 0.48492	9.7518e-11
 0.48546	9.7515e-11
 0.48600	9.7510e-11
 0.48654	9.7510e-11
 0.48708	9.7517e-11
 0.48762	9.7533e-11
 0.48816	9.7550e-11
 0.48870	9.7568e-11
 0.48924	9.7583e-11
 0.48978	9.7598e-11
 0.49032	9.7613e-11
 0.49086	9.7625e-11
 0.49140	9.7637e-11
 0.49194	9.7647e-11
 0.49248	9.7663e-11
 0.49302	9.7679e-11
 0.49356	9.7705e-11
 0.49410	9.7727e-11
 0.49464	9.7753e-11
 0.49518	9.7771e-11
 0.49572	9.7790e-11
 0.49626	9.7801e-11
 0.49680	9.7815e-11
 0.49734	9.7825e-11
 0.49788	9.7844e-11
 0.49842	9.7868e-11
 0.49896	9.7901e-11
 0.49950	9.7933e-11
 0.50004	9.7964e-11
 0.50058	9.7989e-11
 0.50112	9.8006e-11
 0.50166	9.8019e-11
 0.50220	9.8031e-11
 0.50274	9.8048e-11
 0.50328	9.8070e-11
 0.50382	9.8097e-11
 0.50436	9.8126e-11
 0.50490	9.8153e-11
 0.50544	9.8176e-11
 0.50598	9.8198e-11
 0.50652	9.8221e-11
 0.50706	9.8246e-11
 0.50760	9.8271e-11
 0.50814	9.8296e-11
 0.50868	9.8318e-11
 0.50922	9.8343e-11
 0.50976	9.8367e-11
 0.51030	9.8393e-11
 0.51084	9.8420e-11
 0.51138	9.8454e-11
 0.51192	9.8489e-11
 0.51246	9.8528e-11
 0.51300	9.8561e-11
 0.51354	9.8594e-11
 0.51408	9.8618e-11
 0.51462	9.8644e-11
 0.51516	9.8670e-11
 0.51570	9.8700e-11
 0.51624	9.8731e-11
 0.51678	9.8762e-11
 0.51732	9.8792e-11
 0.51786	9.8823e-11
 0.51840	9.8856e-11
 0.51894	9.8891e-11
 0.51948	9.8927e-11
 0.52002	9.8964e-11
 0.52056	9.8998e-11
 0.52110	9.9030e-11
 0.52164	9.9060e-11
 0.52218	9.9095e-11
 0.52272	9.9132e-11
 0.52326	9.9174e-11
 0.52380	9.9215e-11
 0.52434	9.9254e-11
 0.52488	9.9291e-11
 0.52542	9.9327e-11
 0.52596	9.9362e-11
 0.52650	9.9401e-11
 0.52704	9.9441e-11
 0.52758	9.9484e-11
 0.52812	9.9525e-11
 0.52866	9.9565e-11
 0.52920	9.9598e-11
 0.52974	9.9626e-11
 0.53028	9.9651e-11
 0.53082	9.9680e-11
 0.53136	9.9714e-11
 0.53190	9.9759e-11
 0.53244	9.9807e-11
 0.53298	9.9860e-11
 0.53352	9.9903e-11
 0.53406	9.9948e-11
 0.53460	9.9981e-11
 0.53514	1.0002e-10
 0.53568	1.0005e-10
 0.53622	1.0009e-10
 0.53676	1.0013e-10
 0.53730	1.0018e-10
 0.53784	1.0022e-10
 0.53838	1.0027e-10
 0.53892	1.0031e-10
