Time	Current
 0.00000	9.4302e-09
 0.00054	9.5554e-09
 0.00108	9.8035e-09
 0.00162	1.0240e-08
 0.00216	1.0868e-08
 0.00270	1.1587e-08
 0.00324	1.2242e-08
 0.00378	1.2710e-08
 0.00432	1.2986e-08
 0.00486	1.3133e-08
 0.00540	1.3217e-08
 0.00594	1.3272e-08
 0.00648	1.3326e-08
 0.00702	1.3380e-08
 0.00756	1.3435e-08
 0.00810	1.3490e-08
 0.00864	1.3546e-08
 0.00918	1.3603e-08
 0.00972	1.3661e-08
 0.01026	1.3720e-08
 0.01080	1.3779e-08
 0.01134	1.3841e-08
 0.01188	1.3903e-08
 0.01242	1.3967e-08
 0.01296	1.4032e-08
 0.01350	1.4099e-08
 0.01404	1.4167e-08
 0.01458	1.4238e-08
 0.01512	1.4310e-08
 0.01566	1.4384e-08
 0.01620	1.4460e-08
 0.01674	1.4538e-08
 0.01728	1.4619e-08
 0.01782	1.4701e-08
 0.01836	1.4786e-08
 0.01890	1.4873e-08
 0.01944	1.4963e-08
 0.01998	1.5056e-08
 0.02052	1.5151e-08
 0.02106	1.5249e-08
 0.02160	1.5350e-08
 0.02214	1.5453e-08
 0.02268	1.5560e-08
 0.02322	1.5671e-08
 0.02376	1.5784e-08
 0.02430	1.5901e-08
 0.02484	1.6022e-08
 0.02538	1.6147e-08
 0.02592	1.6276e-08
 0.02646	1.6409e-08
 0.02700	1.6547e-08
 0.02754	1.6689e-08
 0.02808	1.6837e-08
 0.02862	1.6990e-08
 0.02916	1.7148e-08
 0.02970	1.7313e-08
 0.03024	1.7485e-08
 0.03078	1.7665e-08
 0.03132	1.7852e-08
 0.03186	1.8048e-08
 0.03240	1.8255e-08
 0.03294	1.8473e-08
 0.03348	1.8704e-08
 0.03402	1.8947e-08
 0.03456	1.9193e-08
 0.03510	1.9430e-08
 0.03564	1.9637e-08
 0.03618	1.9797e-08
 0.03672	1.9903e-08
 0.03726	1.9961e-08
 0.03780	1.9988e-08
 0.03834	1.9998e-08
 0.03888	2.0000e-08
 0.03942	2.0000e-08
 0.03996	2.0000e-08
 0.04050	2.0000e-08
 0.04104	2.0000e-08
 0.04158	1.9989e-08
 0.04212	1.9963e-08
 0.04266	1.9913e-08
 0.04320	1.9838e-08
 0.04374	1.9753e-08
 0.04428	1.9676e-08
 0.04482	1.9621e-08
 0.04536	1.9592e-08
 0.04590	1.9581e-08
 0.04644	1.9580e-08
 0.04698	1.9585e-08
 0.04752	1.9591e-08
 0.04806	1.9599e-08
 0.04860	1.9608e-08
 0.04914	1.9618e-08
 0.04968	1.9629e-08
 0.05022	1.9640e-08
 0.05076	1.9652e-08
 0.05130	1.9664e-08
 0.05184	1.9676e-08
 0.05238	1.9688e-08
 0.05292	1.9701e-08
 0.05346	1.9713e-08
 0.05400	1.9726e-08
 0.05454	1.9738e-08
 0.05508	1.9750e-08
 0.05562	1.9762e-08
 0.05616	1.9774e-08
 0.05670	1.9785e-08
 0.05724	1.9796e-08
 0.05778	1.9807e-08
 0.05832	1.9818e-08
 0.05886	1.9828e-08
 0.05940	1.9838e-08
 0.05994	1.9848e-08
 0.06048	1.9857e-08
 0.06102	1.9866e-08
 0.06156	1.9875e-08
 0.06210	1.9883e-08
 0.06264	1.9891e-08
 0.06318	1.9899e-08
 0.06372	1.9906e-08
 0.06426	1.9913e-08
 0.06480	1.9920e-08
 0.06534	1.9927e-08
 0.06588	1.9933e-08
 0.06642	1.9939e-08
 0.06696	1.9945e-08
 0.06750	1.9950e-08
 0.06804	1.9955e-08
 0.06858	1.9960e-08
 0.06912	1.9965e-08
 0.06966	1.9970e-08
 0.07020	1.9974e-08
 0.07074	1.9978e-08
 0.07128	1.9982e-08
 0.07182	1.9986e-08
 0.07236	1.9990e-08
 0.07290	1.9993e-08
 0.07344	1.9995e-08
 0.07398	1.9997e-08
 0.07452	1.9999e-08
 0.07506	1.9999e-08
 0.07560	2.0000e-08
 0.07614	2.0000e-08
 0.07668	2.0000e-08
 0.07722	2.0000e-08
 0.07776	2.0000e-08
 0.07830	2.0000e-08
 0.07884	2.0000e-08
 0.07938	2.0000e-08
 0.07992	2.0000e-08
 0.08046	2.0000e-08
 0.08100	2.0000e-08
 0.08154	2.0000e-08
 0.08208	2.0000e-08
 0.08262	2.0000e-08
 0.08316	2.0000e-08
 0.08370	2.0000e-08
 0.08424	2.0000e-08
 0.08478	2.0000e-08
 0.08532	2.0000e-08
 0.08586	2.0000e-08
 0.08640	2.0000e-08
 0.08694	2.0000e-08
 0.08748	2.0000e-08
 0.08802	2.0000e-08
 0.08856	2.0000e-08
 0.08910	2.0000e-08
 0.08964	2.0000e-08
 0.09018	2.0000e-08
 0.09072	2.0000e-08
 0.09126	2.0000e-08
 0.09180	2.0000e-08
 0.09234	2.0000e-08
 0.09288	2.0000e-08
 0.09342	2.0000e-08
 0.09396	2.0000e-08
 0.09450	2.0000e-08
 0.09504	2.0000e-08
 0.09558	2.0000e-08
 0.09612	2.0000e-08
 0.09666	2.0000e-08
 0.09720	2.0000e-08
 0.09774	2.0000e-08
 0.09828	2.0000e-08
 0.09882	2.0000e-08
 0.09936	2.0000e-08
 0.09990	2.0000e-08
 0.10044	2.0000e-08
 0.10098	2.0000e-08
 0.10152	2.0000e-08
 0.10206	2.0000e-08
 0.10260	2.0000e-08
 0.10314	2.0000e-08
 0.10368	2.0000e-08
 0.10422	2.0000e-08
 0.10476	2.0000e-08
 0.10530	2.0000e-08
 0.10584	2.0000e-08
 0.10638	2.0000e-08
 0.10692	2.0000e-08
 0.10746	2.0000e-08
 0.10800	2.0000e-08
 0.10854	2.0000e-08
 0.10908	2.0000e-08
 0.10962	2.0000e-08
 0.11016	2.0000e-08
 0.11070	2.0000e-08
 0.11124	2.0000e-08
 0.11178	2.0000e-08
 0.11232	2.0000e-08
 0.11286	2.0000e-08
 0.11340	2.0000e-08
 0.11394	2.0000e-08
 0.11448	2.0000e-08
 0.11502	2.0000e-08
 0.11556	2.0000e-08
 0.11610	2.0000e-08
 0.11664	2.0000e-08
 0.11718	2.0000e-08
 0.11772	2.0000e-08
 0.11826	2.0000e-08
 0.11880	2.0000e-08
 0.11934	2.0000e-08
 0.11988	2.0000e-08
 0.12042	2.0000e-08
 0.12096	2.0000e-08
 0.12150	2.0000e-08
 0.12204	2.0000e-08
 0.12258	2.0000e-08
 0.12312	2.0000e-08
 0.12366	2.0000e-08
 0.12420	2.0000e-08
 0.12474	2.0000e-08
 0.12528	2.0000e-08
 0.12582	2.0000e-08
 0.12636	2.0000e-08
 0.12690	2.0000e-08
 0.12744	2.0000e-08
 0.12798	2.0000e-08
 0.12852	2.0000e-08
 0.12906	2.0000e-08
 0.12960	2.0000e-08
 0.13014	2.0000e-08
 0.13068	2.0000e-08
 0.13122	2.0000e-08
 0.13176	2.0000e-08
 0.13230	2.0000e-08
 0.13284	2.0000e-08
 0.13338	2.0000e-08
 0.13392	2.0000e-08
 0.13446	2.0000e-08
 0.13500	2.0000e-08
 0.13554	2.0000e-08
 0.13608	2.0000e-08
 0.13662	2.0000e-08
 0.13716	2.0000e-08
 0.13770	2.0000e-08
 0.13824	2.0000e-08
 0.13878	2.0000e-08
 0.13932	2.0000e-08
 0.13986	2.0000e-08
 0.14040	2.0000e-08
 0.14094	2.0000e-08
 0.14148	2.0000e-08
 0.14202	2.0000e-08
 0.14256	2.0000e-08
 0.14310	2.0000e-08
 0.14364	2.0000e-08
 0.14418	2.0000e-08
 0.14472	2.0000e-08
 0.14526	2.0000e-08
 0.14580	2.0000e-08
 0.14634	2.0000e-08
 0.14688	2.0000e-08
 0.14742	2.0000e-08
 0.14796	2.0000e-08
 0.14850	2.0000e-08
 0.14904	2.0000e-08
 0.14958	2.0000e-08
 0.15012	2.0000e-08
 0.15066	2.0000e-08
 0.15120	2.0000e-08
 0.15174	2.0000e-08
 0.15228	2.0000e-08
 0.15282	2.0000e-08
 0.15336	2.0000e-08
 0.15390	2.0000e-08
 0.15444	2.0000e-08
 0.15498	2.0000e-08
 0.15552	2.0000e-08
 0.15606	2.0000e-08
 0.15660	2.0000e-08
 0.15714	2.0000e-08
 0.15768	2.0000e-08
 0.15822	2.0000e-08
 0.15876	2.0000e-08
 0.15930	2.0000e-08
 0.15984	2.0000e-08
 0.16038	2.0000e-08
 0.16092	2.0000e-08
 0.16146	2.0000e-08
 0.16200	2.0000e-08
 0.16254	2.0000e-08
 0.16308	2.0000e-08
 0.16362	2.0000e-08
 0.16416	2.0000e-08
 0.16470	2.0000e-08
 0.16524	2.0000e-08
 0.16578	2.0000e-08
 0.16632	2.0000e-08
 0.16686	2.0000e-08
 0.16740	2.0000e-08
 0.16794	2.0000e-08
 0.16848	2.0000e-08
 0.16902	2.0000e-08
 0.16956	2.0000e-08
 0.17010	2.0000e-08
 0.17064	2.0000e-08
 0.17118	2.0000e-08
 0.17172	2.0000e-08
 0.17226	2.0000e-08
 0.17280	2.0000e-08
 0.17334	2.0000e-08
 0.17388	2.0000e-08
 0.17442	2.0000e-08
 0.17496	2.0000e-08
 0.17550	2.0000e-08
 0.17604	2.0000e-08
 0.17658	2.0000e-08
 0.17712	2.0000e-08
 0.17766	2.0000e-08
 0.17820	2.0000e-08
 0.17874	2.0000e-08
 0.17928	2.0000e-08
 0.17982	2.0000e-08
 0.18036	2.0000e-08
 0.18090	2.0000e-08
 0.18144	2.0000e-08
 0.18198	2.0000e-08
 0.18252	2.0000e-08
 0.18306	2.0000e-08
 0.18360	2.0000e-08
 0.18414	2.0000e-08
 0.18468	2.0000e-08
 0.18522	2.0000e-08
 0.18576	2.0000e-08
 0.18630	2.0000e-08
 0.18684	2.0000e-08
 0.18738	2.0000e-08
 0.18792	2.0000e-08
 0.18846	2.0000e-08
 0.18900	2.0000e-08
 0.18954	2.0000e-08
 0.19008	2.0000e-08
 0.19062	2.0000e-08
 0.19116	2.0000e-08
 0.19170	2.0000e-08
 0.19224	2.0000e-08
 0.19278	2.0000e-08
 0.19332	2.0000e-08
 0.19386	2.0000e-08
 0.19440	2.0000e-08
 0.19494	2.0000e-08
 0.19548	2.0000e-08
 0.19602	2.0000e-08
 0.19656	2.0000e-08
 0.19710	2.0000e-08
 0.19764	2.0000e-08
 0.19818	2.0000e-08
 0.19872	2.0000e-08
 0.19926	2.0000e-08
 0.19980	1.9997e-08
 0.20034	1.9989e-08
 0.20088	1.9970e-08
 0.20142	1.9933e-08
 0.20196	1.9875e-08
 0.20250	1.9797e-08
 0.20304	1.9702e-08
 0.20358	1.9596e-08
 0.20412	1.9483e-08
 0.20466	1.9366e-08
 0.20520	1.9246e-08
 0.20574	1.9123e-08
 0.20628	1.8998e-08
 0.20682	1.8872e-08
 0.20736	1.8744e-08
 0.20790	1.8617e-08
 0.20844	1.8493e-08
 0.20898	1.8373e-08
 0.20952	1.8259e-08
 0.21006	1.8151e-08
 0.21060	1.8046e-08
 0.21114	1.7943e-08
 0.21168	1.7841e-08
 0.21222	1.7739e-08
 0.21276	1.7636e-08
 0.21330	1.7533e-08
 0.21384	1.7429e-08
 0.21438	1.7325e-08
 0.21492	1.7220e-08
 0.21546	1.7115e-08
 0.21600	1.7011e-08
 0.21654	1.6907e-08
 0.21708	1.6803e-08
 0.21762	1.6701e-08
 0.21816	1.6599e-08
 0.21870	1.6498e-08
 0.21924	1.6397e-08
 0.21978	1.6298e-08
 0.22032	1.6199e-08
 0.22086	1.6101e-08
 0.22140	1.6005e-08
 0.22194	1.5909e-08
 0.22248	1.5814e-08
 0.22302	1.5721e-08
 0.22356	1.5629e-08
 0.22410	1.5538e-08
 0.22464	1.5449e-08
 0.22518	1.5361e-08
 0.22572	1.5275e-08
 0.22626	1.5190e-08
 0.22680	1.5106e-08
 0.22734	1.5025e-08
 0.22788	1.4945e-08
 0.22842	1.4867e-08
 0.22896	1.4791e-08
 0.22950	1.4716e-08
 0.23004	1.4643e-08
 0.23058	1.4573e-08
 0.23112	1.4504e-08
 0.23166	1.4437e-08
 0.23220	1.4372e-08
 0.23274	1.4309e-08
 0.23328	1.4248e-08
 0.23382	1.4189e-08
 0.23436	1.4133e-08
 0.23490	1.4078e-08
 0.23544	1.4026e-08
 0.23598	1.3975e-08
 0.23652	1.3927e-08
 0.23706	1.3882e-08
 0.23760	1.3838e-08
 0.23814	1.3797e-08
 0.23868	1.3758e-08
 0.23922	1.3716e-08
 0.23976	1.3654e-08
 0.24030	1.3548e-08
 0.24084	1.3370e-08
 0.24138	1.3098e-08
 0.24192	1.2734e-08
 0.24246	1.2304e-08
 0.24300	1.1842e-08
 0.24354	1.1378e-08
 0.24408	1.0927e-08
 0.24462	1.0491e-08
 0.24516	1.0066e-08
 0.24570	9.6443e-09
 0.24624	9.2157e-09
 0.24678	8.7703e-09
 0.24732	8.3023e-09
 0.24786	7.8166e-09
 0.24840	7.3313e-09
 0.24894	6.8775e-09
 0.24948	6.4892e-09
 0.25002	6.1867e-09
 0.25056	5.9672e-09
 0.25110	5.8093e-09
 0.25164	5.6873e-09
 0.25218	5.5816e-09
 0.25272	5.4811e-09
 0.25326	5.3809e-09
 0.25380	5.2797e-09
 0.25434	5.1774e-09
 0.25488	5.0740e-09
 0.25542	4.9707e-09
 0.25596	4.8713e-09
 0.25650	4.7815e-09
 0.25704	4.7086e-09
 0.25758	4.6584e-09
 0.25812	4.6327e-09
 0.25866	4.6277e-09
 0.25920	4.6373e-09
 0.25974	4.6552e-09
 0.26028	4.6773e-09
 0.26082	4.7013e-09
 0.26136	4.7262e-09
 0.26190	4.7518e-09
 0.26244	4.7779e-09
 0.26298	4.8040e-09
 0.26352	4.8301e-09
 0.26406	4.8558e-09
 0.26460	4.8811e-09
 0.26514	4.9061e-09
 0.26568	4.9319e-09
 0.26622	4.9597e-09
 0.26676	4.9911e-09
 0.26730	5.0272e-09
 0.26784	5.0677e-09
 0.26838	5.1112e-09
 0.26892	5.1557e-09
 0.26946	5.1997e-09
 0.27000	5.2424e-09
 0.27054	5.2833e-09
 0.27108	5.3224e-09
 0.27162	5.3597e-09
 0.27216	5.3950e-09
 0.27270	5.4284e-09
 0.27324	5.4598e-09
 0.27378	5.4895e-09
 0.27432	5.5175e-09
 0.27486	5.5440e-09
 0.27540	5.5689e-09
 0.27594	5.5924e-09
 0.27648	5.6143e-09
 0.27702	5.6346e-09
 0.27756	5.6535e-09
 0.27810	5.6708e-09
 0.27864	5.6868e-09
 0.27918	5.7015e-09
 0.27972	5.7148e-09
 0.28026	5.7271e-09
 0.28080	5.7385e-09
 0.28134	5.7494e-09
 0.28188	5.7602e-09
 0.28242	5.7711e-09
 0.28296	5.7821e-09
 0.28350	5.7931e-09
 0.28404	5.8038e-09
 0.28458	5.8144e-09
 0.28512	5.8246e-09
 0.28566	5.8343e-09
 0.28620	5.8432e-09
 0.28674	5.8509e-09
 0.28728	5.8573e-09
 0.28782	5.8620e-09
 0.28836	5.8652e-09
 0.28890	5.8671e-09
 0.28944	5.8680e-09
 0.28998	5.8681e-09
 0.29052	5.8676e-09
 0.29106	5.8666e-09
 0.29160	5.8650e-09
 0.29214	5.8630e-09
 0.29268	5.8605e-09
 0.29322	5.8576e-09
 0.29376	5.8545e-09
 0.29430	5.8512e-09
 0.29484	5.8477e-09
 0.29538	5.8441e-09
 0.29592	5.8403e-09
 0.29646	5.8364e-09
 0.29700	5.8323e-09
 0.29754	5.8282e-09
 0.29808	5.8239e-09
 0.29862	5.8193e-09
 0.29916	5.8144e-09
 0.29970	5.8093e-09
 0.30024	5.8039e-09
 0.30078	5.7985e-09
 0.30132	5.7931e-09
 0.30186	5.7877e-09
 0.30240	5.7823e-09
 0.30294	5.7769e-09
 0.30348	5.7715e-09
 0.30402	5.7660e-09
 0.30456	5.7604e-09
 0.30510	5.7547e-09
 0.30564	5.7492e-09
 0.30618	5.7440e-09
 0.30672	5.7392e-09
 0.30726	5.7347e-09
 0.30780	5.7306e-09
 0.30834	5.7265e-09
 0.30888	5.7224e-09
 0.30942	5.7182e-09
 0.30996	5.7140e-09
 0.31050	5.7098e-09
 0.31104	5.7058e-09
 0.31158	5.7018e-09
 0.31212	5.6978e-09
 0.31266	5.6939e-09
 0.31320	5.6900e-09
 0.31374	5.6861e-09
 0.31428	5.6822e-09
 0.31482	5.6782e-09
 0.31536	5.6743e-09
 0.31590	5.6702e-09
 0.31644	5.6661e-09
 0.31698	5.6618e-09
 0.31752	5.6574e-09
 0.31806	5.6529e-09
 0.31860	5.6484e-09
 0.31914	5.6438e-09
 0.31968	5.6392e-09
 0.32022	5.6346e-09
 0.32076	5.6300e-09
 0.32130	5.6253e-09
 0.32184	5.6206e-09
 0.32238	5.6159e-09
 0.32292	5.6112e-09
 0.32346	5.6064e-09
 0.32400	5.6016e-09
 0.32454	5.5968e-09
 0.32508	5.5919e-09
 0.32562	5.5870e-09
 0.32616	5.5820e-09
 0.32670	5.5771e-09
 0.32724	5.5721e-09
 0.32778	5.5671e-09
 0.32832	5.5621e-09
 0.32886	5.5571e-09
 0.32940	5.5520e-09
 0.32994	5.5469e-09
 0.33048	5.5418e-09
 0.33102	5.5367e-09
 0.33156	5.5315e-09
 0.33210	5.5262e-09
 0.33264	5.5210e-09
 0.33318	5.5157e-09
 0.33372	5.5104e-09
 0.33426	5.5051e-09
 0.33480	5.4998e-09
 0.33534	5.4944e-09
 0.33588	5.4891e-09
 0.33642	5.4837e-09
 0.33696	5.4784e-09
 0.33750	5.4730e-09
 0.33804	5.4676e-09
 0.33858	5.4622e-09
 0.33912	5.4568e-09
 0.33966	5.4514e-09
 0.34020	5.4459e-09
 0.34074	5.4404e-09
 0.34128	5.4349e-09
 0.34182	5.4294e-09
 0.34236	5.4239e-09
 0.34290	5.4183e-09
 0.34344	5.4128e-09
 0.34398	5.4072e-09
 0.34452	5.4016e-09
 0.34506	5.3960e-09
 0.34560	5.3904e-09
 0.34614	5.3848e-09
 0.34668	5.3791e-09
 0.34722	5.3735e-09
 0.34776	5.3678e-09
 0.34830	5.3622e-09
 0.34884	5.3565e-09
 0.34938	5.3508e-09
 0.34992	5.3451e-09
 0.35046	5.3394e-09
 0.35100	5.3336e-09
 0.35154	5.3279e-09
 0.35208	5.3222e-09
 0.35262	5.3164e-09
 0.35316	5.3107e-09
 0.35370	5.3049e-09
 0.35424	5.2991e-09
 0.35478	5.2933e-09
 0.35532	5.2875e-09
 0.35586	5.2817e-09
 0.35640	5.2758e-09
 0.35694	5.2700e-09
 0.35748	5.2641e-09
 0.35802	5.2583e-09
 0.35856	5.2524e-09
 0.35910	5.2465e-09
 0.35964	5.2406e-09
 0.36018	5.2347e-09
 0.36072	5.2288e-09
 0.36126	5.2229e-09
 0.36180	5.2169e-09
 0.36234	5.2110e-09
 0.36288	5.2050e-09
 0.36342	5.1991e-09
 0.36396	5.1931e-09
 0.36450	5.1871e-09
 0.36504	5.1811e-09
 0.36558	5.1751e-09
 0.36612	5.1690e-09
 0.36666	5.1630e-09
 0.36720	5.1570e-09
 0.36774	5.1509e-09
 0.36828	5.1448e-09
 0.36882	5.1387e-09
 0.36936	5.1326e-09
 0.36990	5.1265e-09
 0.37044	5.1204e-09
 0.37098	5.1143e-09
 0.37152	5.1081e-09
 0.37206	5.1020e-09
 0.37260	5.0958e-09
 0.37314	5.0897e-09
 0.37368	5.0835e-09
 0.37422	5.0772e-09
 0.37476	5.0710e-09
 0.37530	5.0647e-09
 0.37584	5.0584e-09
 0.37638	5.0521e-09
 0.37692	5.0458e-09
 0.37746	5.0396e-09
 0.37800	5.0333e-09
 0.37854	5.0270e-09
 0.37908	5.0207e-09
 0.37962	5.0143e-09
 0.38016	5.0080e-09
 0.38070	5.0017e-09
 0.38124	4.9953e-09
 0.38178	4.9890e-09
 0.38232	4.9826e-09
 0.38286	4.9762e-09
 0.38340	4.9698e-09
 0.38394	4.9634e-09
 0.38448	4.9569e-09
 0.38502	4.9505e-09
 0.38556	4.9440e-09
 0.38610	4.9376e-09
 0.38664	4.9311e-09
 0.38718	4.9246e-09
 0.38772	4.9181e-09
 0.38826	4.9116e-09
 0.38880	4.9051e-09
 0.38934	4.8985e-09
 0.38988	4.8920e-09
 0.39042	4.8854e-09
 0.39096	4.8789e-09
 0.39150	4.8723e-09
 0.39204	4.8657e-09
 0.39258	4.8590e-09
 0.39312	4.8524e-09
 0.39366	4.8458e-09
 0.39420	4.8391e-09
 0.39474	4.8325e-09
 0.39528	4.8258e-09
 0.39582	4.8191e-09
 0.39636	4.8124e-09
 0.39690	4.8057e-09
 0.39744	4.7989e-09
 0.39798	4.7922e-09
 0.39852	4.7854e-09
 0.39906	4.7787e-09
 0.39960	4.7719e-09
 0.40014	4.7651e-09
 0.40068	4.7583e-09
 0.40122	4.7514e-09
 0.40176	4.7446e-09
 0.40230	4.7377e-09
 0.40284	4.7309e-09
 0.40338	4.7240e-09
 0.40392	4.7171e-09
 0.40446	4.7102e-09
 0.40500	4.7033e-09
 0.40554	4.6963e-09
 0.40608	4.6894e-09
 0.40662	4.6824e-09
 0.40716	4.6755e-09
 0.40770	4.6685e-09
 0.40824	4.6616e-09
 0.40878	4.6546e-09
 0.40932	4.6476e-09
 0.40986	4.6406e-09
 0.41040	4.6335e-09
 0.41094	4.6265e-09
 0.41148	4.6195e-09
 0.41202	4.6124e-09
 0.41256	4.6054e-09
 0.41310	4.5983e-09
 0.41364	4.5912e-09
 0.41418	4.5842e-09
 0.41472	4.5771e-09
 0.41526	4.5700e-09
 0.41580	4.5629e-09
 0.41634	4.5558e-09
 0.41688	4.5487e-09
 0.41742	4.5416e-09
 0.41796	4.5345e-09
 0.41850	4.5274e-09
 0.41904	4.5202e-09
 0.41958	4.5131e-09
 0.42012	4.5060e-09
 0.42066	4.4989e-09
 0.42120	4.4917e-09
 0.42174	4.4846e-09
 0.42228	4.4775e-09
 0.42282	4.4705e-09
 0.42336	4.4634e-09
 0.42390	4.4563e-09
 0.42444	4.4492e-09
 0.42498	4.4419e-09
 0.42552	4.4346e-09
 0.42606	4.4272e-09
 0.42660	4.4199e-09
 0.42714	4.4127e-09
 0.42768	4.4057e-09
 0.42822	4.3987e-09
 0.42876	4.3916e-09
 0.42930	4.3846e-09
 0.42984	4.3775e-09
 0.43038	4.3703e-09
 0.43092	4.3632e-09
 0.43146	4.3561e-09
 0.43200	4.3489e-09
 0.43254	4.3418e-09
 0.43308	4.3346e-09
 0.43362	4.3275e-09
 0.43416	4.3204e-09
 0.43470	4.3132e-09
 0.43524	4.3061e-09
 0.43578	4.2990e-09
 0.43632	4.2919e-09
 0.43686	4.2848e-09
 0.43740	4.2777e-09
 0.43794	4.2706e-09
 0.43848	4.2635e-09
 0.43902	4.2563e-09
 0.43956	4.2492e-09
 0.44010	4.2421e-09
 0.44064	4.2350e-09
 0.44118	4.2279e-09
 0.44172	4.2208e-09
 0.44226	4.2137e-09
 0.44280	4.2066e-09
 0.44334	4.1994e-09
 0.44388	4.1923e-09
 0.44442	4.1851e-09
 0.44496	4.1780e-09
 0.44550	4.1710e-09
 0.44604	4.1645e-09
 0.44658	4.1586e-09
 0.44712	4.1536e-09
 0.44766	4.1497e-09
 0.44820	4.1465e-09
 0.44874	4.1440e-09
 0.44928	4.1415e-09
 0.44982	4.1391e-09
 0.45036	4.1366e-09
 0.45090	4.1344e-09
 0.45144	4.1325e-09
 0.45198	4.1311e-09
 0.45252	4.1300e-09
 0.45306	4.1290e-09
 0.45360	4.1276e-09
 0.45414	4.1256e-09
 0.45468	4.1231e-09
 0.45522	4.1205e-09
 0.45576	4.1178e-09
 0.45630	4.1153e-09
 0.45684	4.1129e-09
 0.45738	4.1106e-09
 0.45792	4.1083e-09
 0.45846	4.1059e-09
 0.45900	4.1035e-09
 0.45954	4.1012e-09
 0.46008	4.0988e-09
 0.46062	4.0963e-09
 0.46116	4.0939e-09
 0.46170	4.0915e-09
 0.46224	4.0890e-09
 0.46278	4.0865e-09
 0.46332	4.0840e-09
 0.46386	4.0815e-09
 0.46440	4.0790e-09
 0.46494	4.0764e-09
 0.46548	4.0738e-09
 0.46602	4.0712e-09
 0.46656	4.0686e-09
 0.46710	4.0659e-09
 0.46764	4.0632e-09
 0.46818	4.0605e-09
 0.46872	4.0577e-09
 0.46926	4.0550e-09
 0.46980	4.0523e-09
 0.47034	4.0495e-09
 0.47088	4.0468e-09
 0.47142	4.0441e-09
 0.47196	4.0413e-09
 0.47250	4.0384e-09
 0.47304	4.0356e-09
 0.47358	4.0327e-09
 0.47412	4.0299e-09
 0.47466	4.0269e-09
 0.47520	4.0239e-09
 0.47574	4.0208e-09
 0.47628	4.0176e-09
 0.47682	4.0142e-09
 0.47736	4.0107e-09
 0.47790	4.0070e-09
 0.47844	4.0033e-09
 0.47898	3.9994e-09
 0.47952	3.9956e-09
 0.48006	3.9917e-09
 0.48060	3.9879e-09
 0.48114	3.9843e-09
 0.48168	3.9808e-09
 0.48222	3.9774e-09
 0.48276	3.9739e-09
 0.48330	3.9703e-09
 0.48384	3.9666e-09
 0.48438	3.9629e-09
 0.48492	3.9592e-09
 0.48546	3.9555e-09
 0.48600	3.9518e-09
 0.48654	3.9482e-09
 0.48708	3.9446e-09
 0.48762	3.9409e-09
 0.48816	3.9373e-09
 0.48870	3.9338e-09
 0.48924	3.9303e-09
 0.48978	3.9268e-09
 0.49032	3.9234e-09
 0.49086	3.9199e-09
 0.49140	3.9165e-09
 0.49194	3.9131e-09
 0.49248	3.9097e-09
 0.49302	3.9062e-09
 0.49356	3.9028e-09
 0.49410	3.8993e-09
 0.49464	3.8958e-09
 0.49518	3.8922e-09
 0.49572	3.8887e-09
 0.49626	3.8851e-09
 0.49680	3.8815e-09
 0.49734	3.8779e-09
 0.49788	3.8743e-09
 0.49842	3.8707e-09
 0.49896	3.8670e-09
 0.49950	3.8634e-09
 0.50004	3.8598e-09
 0.50058	3.8562e-09
 0.50112	3.8525e-09
 0.50166	3.8489e-09
 0.50220	3.8452e-09
 0.50274	3.8415e-09
 0.50328	3.8378e-09
 0.50382	3.8341e-09
 0.50436	3.8304e-09
 0.50490	3.8267e-09
 0.50544	3.8230e-09
 0.50598	3.8193e-09
 0.50652	3.8156e-09
 0.50706	3.8119e-09
 0.50760	3.8082e-09
 0.50814	3.8044e-09
 0.50868	3.8007e-09
 0.50922	3.7970e-09
 0.50976	3.7933e-09
 0.51030	3.7896e-09
 0.51084	3.7861e-09
 0.51138	3.7825e-09
 0.51192	3.7790e-09
 0.51246	3.7754e-09
 0.51300	3.7718e-09
 0.51354	3.7682e-09
 0.51408	3.7645e-09
 0.51462	3.7606e-09
 0.51516	3.7567e-09
 0.51570	3.7526e-09
 0.51624	3.7486e-09
 0.51678	3.7447e-09
 0.51732	3.7410e-09
 0.51786	3.7375e-09
 0.51840	3.7343e-09
 0.51894	3.7314e-09
 0.51948	3.7285e-09
 0.52002	3.7254e-09
 0.52056	3.7217e-09
 0.52110	3.7175e-09
 0.52164	3.7130e-09
 0.52218	3.7085e-09
 0.52272	3.7042e-09
 0.52326	3.7001e-09
 0.52380	3.6961e-09
 0.52434	3.6920e-09
 0.52488	3.6875e-09
 0.52542	3.6827e-09
 0.52596	3.6777e-09
 0.52650	3.6727e-09
 0.52704	3.6679e-09
 0.52758	3.6634e-09
 0.52812	3.6593e-09
 0.52866	3.6555e-09
 0.52920	3.6519e-09
 0.52974	3.6484e-09
 0.53028	3.6450e-09
 0.53082	3.6415e-09
 0.53136	3.6379e-09
 0.53190	3.6342e-09
 0.53244	3.6302e-09
 0.53298	3.6260e-09
 0.53352	3.6217e-09
 0.53406	3.6172e-09
 0.53460	3.6124e-09
 0.53514	3.6074e-09
 0.53568	3.6023e-09
 0.53622	3.5970e-09
 0.53676	3.5918e-09
 0.53730	3.5869e-09
 0.53784	3.5825e-09
 0.53838	3.5785e-09
 0.53892	3.5748e-09
