Time	Current
 0.00000	1.0403e-08
 0.00054	1.1041e-08
 0.00108	1.1665e-08
 0.00162	1.2379e-08
 0.00216	1.3097e-08
 0.00270	1.3808e-08
 0.00324	1.4335e-08
 0.00378	1.4383e-08
 0.00432	1.3876e-08
 0.00486	1.2966e-08
 0.00540	1.1956e-08
 0.00594	1.1089e-08
 0.00648	1.0460e-08
 0.00702	1.0054e-08
 0.00756	9.8391e-09
 0.00810	9.7262e-09
 0.00864	9.6674e-09
 0.00918	9.6298e-09
 0.00972	9.6003e-09
 0.01026	9.5617e-09
 0.01080	9.5081e-09
 0.01134	9.4341e-09
 0.01188	9.3410e-09
 0.01242	9.2280e-09
 0.01296	9.0958e-09
 0.01350	8.9826e-09
 0.01404	8.9055e-09
 0.01458	8.9016e-09
 0.01512	8.9817e-09
 0.01566	9.1120e-09
 0.01620	9.2270e-09
 0.01674	9.2673e-09
 0.01728	9.2105e-09
 0.01782	9.0682e-09
 0.01836	8.8863e-09
 0.01890	8.6742e-09
 0.01944	8.4792e-09
 0.01998	8.3256e-09
 0.02052	8.2190e-09
 0.02106	8.1429e-09
 0.02160	8.0601e-09
 0.02214	7.8777e-09
 0.02268	7.5212e-09
 0.02322	6.9742e-09
 0.02376	6.3060e-09
 0.02430	5.6413e-09
 0.02484	5.0749e-09
 0.02538	4.6460e-09
 0.02592	4.3380e-09
 0.02646	4.1093e-09
 0.02700	3.9237e-09
 0.02754	3.7660e-09
 0.02808	3.6291e-09
 0.02862	3.4300e-09
 0.02916	3.1319e-09
 0.02970	2.6749e-09
 0.03024	2.0576e-09
 0.03078	1.3753e-09
 0.03132	7.7491e-10
 0.03186	3.5846e-10
 0.03240	1.3148e-10
 0.03294	3.4372e-11
 0.03348	1.7483e-12
 0.03402	6.9389e-24
 0.03456	6.9389e-24
 0.03510	6.9389e-24
 0.03564	6.9389e-24
 0.03618	6.9389e-24
 0.03672	6.9389e-24
 0.03726	6.9389e-24
 0.03780	6.9389e-24
 0.03834	6.9389e-24
 0.03888	6.9389e-24
 0.03942	6.9389e-24
 0.03996	6.9389e-24
 0.04050	6.9389e-24
 0.04104	6.9389e-24
 0.04158	6.9389e-24
 0.04212	6.9389e-24
 0.04266	6.9389e-24
 0.04320	6.9389e-24
 0.04374	6.9389e-24
 0.04428	6.9389e-24
 0.04482	6.9389e-24
 0.04536	6.9389e-24
 0.04590	6.9389e-24
 0.04644	6.9389e-24
 0.04698	6.9389e-24
 0.04752	6.9389e-24
 0.04806	6.9389e-24
 0.04860	6.9389e-24
 0.04914	6.9389e-24
 0.04968	6.9389e-24
 0.05022	6.9389e-24
 0.05076	1.0277e-10
 0.05130	3.5953e-10
 0.05184	8.4441e-10
 0.05238	1.5600e-09
 0.05292	2.3858e-09
 0.05346	3.1317e-09
 0.05400	3.6589e-09
 0.05454	3.9498e-09
 0.05508	4.0733e-09
 0.05562	4.1101e-09
 0.05616	4.1045e-09
 0.05670	4.0947e-09
 0.05724	4.0851e-09
 0.05778	4.0774e-09
 0.05832	4.0712e-09
 0.05886	4.0662e-09
 0.05940	4.0615e-09
 0.05994	4.0566e-09
 0.06048	4.0503e-09
 0.06102	4.0423e-09
 0.06156	4.0322e-09
 0.06210	4.0208e-09
 0.06264	4.0085e-09
 0.06318	3.9959e-09
 0.06372	3.9824e-09
 0.06426	3.9664e-09
 0.06480	3.9463e-09
 0.06534	3.9213e-09
 0.06588	3.8915e-09
 0.06642	3.8581e-09
 0.06696	3.8228e-09
 0.06750	3.7877e-09
 0.06804	3.7539e-09
 0.06858	3.7216e-09
 0.06912	3.6892e-09
 0.06966	3.6557e-09
 0.07020	3.6207e-09
 0.07074	3.5854e-09
 0.07128	3.5504e-09
 0.07182	3.5158e-09
 0.07236	3.4819e-09
 0.07290	3.4484e-09
 0.07344	3.4156e-09
 0.07398	3.3837e-09
 0.07452	3.3527e-09
 0.07506	3.3231e-09
 0.07560	3.2947e-09
 0.07614	3.2671e-09
 0.07668	3.2398e-09
 0.07722	3.2121e-09
 0.07776	3.1847e-09
 0.07830	3.1582e-09
 0.07884	3.1328e-09
 0.07938	3.1094e-09
 0.07992	3.0888e-09
 0.08046	3.0703e-09
 0.08100	3.0527e-09
 0.08154	3.0349e-09
 0.08208	2.9476e-09
 0.08262	2.7520e-09
 0.08316	2.3981e-09
 0.08370	1.8829e-09
 0.08424	1.2882e-09
 0.08478	7.4633e-10
 0.08532	3.5730e-10
 0.08586	1.3712e-10
 0.08640	3.8803e-11
 0.08694	4.1007e-12
 0.08748	6.9389e-24
 0.08802	6.9389e-24
 0.08856	6.9389e-24
 0.08910	6.9389e-24
 0.08964	6.9389e-24
 0.09018	6.9389e-24
 0.09072	6.9584e-11
 0.09126	2.5029e-10
 0.09180	5.9624e-10
 0.09234	1.1153e-09
 0.09288	1.7282e-09
 0.09342	2.3008e-09
 0.09396	2.7287e-09
 0.09450	2.9910e-09
 0.09504	3.1332e-09
 0.09558	3.2131e-09
 0.09612	3.2653e-09
 0.09666	3.3179e-09
 0.09720	3.3762e-09
 0.09774	3.4384e-09
 0.09828	3.5007e-09
 0.09882	3.5592e-09
 0.09936	3.6108e-09
 0.09990	3.6538e-09
 0.10044	3.6876e-09
 0.10098	3.7126e-09
 0.10152	3.7290e-09
 0.10206	3.7372e-09
 0.10260	3.7370e-09
 0.10314	3.7288e-09
 0.10368	3.7123e-09
 0.10422	3.6880e-09
 0.10476	3.6561e-09
 0.10530	3.6171e-09
 0.10584	3.5710e-09
 0.10638	3.5175e-09
 0.10692	3.4561e-09
 0.10746	3.3861e-09
 0.10800	3.3068e-09
 0.10854	3.2174e-09
 0.10908	3.1168e-09
 0.10962	3.0049e-09
 0.11016	2.8825e-09
 0.11070	2.7518e-09
 0.11124	2.6158e-09
 0.11178	2.4798e-09
 0.11232	2.3496e-09
 0.11286	2.2302e-09
 0.11340	2.1251e-09
 0.11394	2.0360e-09
 0.11448	1.9622e-09
 0.11502	1.9033e-09
 0.11556	1.8577e-09
 0.11610	1.8242e-09
 0.11664	1.8022e-09
 0.11718	1.8327e-09
 0.11772	1.9007e-09
 0.11826	2.0503e-09
 0.11880	2.2404e-09
 0.11934	2.4204e-09
 0.11988	2.5644e-09
 0.12042	2.6251e-09
 0.12096	2.6258e-09
 0.12150	2.6017e-09
 0.12204	2.5648e-09
 0.12258	2.5087e-09
 0.12312	2.4516e-09
 0.12366	2.4117e-09
 0.12420	2.4178e-09
 0.12474	2.4654e-09
 0.12528	2.5375e-09
 0.12582	2.6288e-09
 0.12636	2.7263e-09
 0.12690	2.8255e-09
 0.12744	2.9249e-09
 0.12798	3.0238e-09
 0.12852	3.1184e-09
 0.12906	3.1587e-09
 0.12960	3.1076e-09
 0.13014	2.9249e-09
 0.13068	2.6044e-09
 0.13122	2.2058e-09
 0.13176	1.8319e-09
 0.13230	1.5668e-09
 0.13284	1.4438e-09
 0.13338	1.4515e-09
 0.13392	1.5721e-09
 0.13446	1.7989e-09
 0.13500	2.1115e-09
 0.13554	2.4794e-09
 0.13608	2.8637e-09
 0.13662	3.2315e-09
 0.13716	3.5661e-09
 0.13770	3.8631e-09
 0.13824	4.1226e-09
 0.13878	4.3457e-09
 0.13932	4.5318e-09
 0.13986	4.6802e-09
 0.14040	4.7933e-09
 0.14094	4.8779e-09
 0.14148	4.9427e-09
 0.14202	4.9954e-09
 0.14256	5.0411e-09
 0.14310	5.0831e-09
 0.14364	5.1228e-09
 0.14418	5.1616e-09
 0.14472	5.2023e-09
 0.14526	5.2490e-09
 0.14580	5.2995e-09
 0.14634	5.3518e-09
 0.14688	5.3926e-09
 0.14742	5.4119e-09
 0.14796	5.4002e-09
 0.14850	5.3636e-09
 0.14904	5.3245e-09
 0.14958	5.2864e-09
 0.15012	5.2557e-09
 0.15066	5.2281e-09
 0.15120	5.1951e-09
 0.15174	5.1608e-09
 0.15228	5.1478e-09
 0.15282	5.1775e-09
 0.15336	5.2558e-09
 0.15390	5.3691e-09
 0.15444	5.4990e-09
 0.15498	5.6351e-09
 0.15552	5.7689e-09
 0.15606	5.8985e-09
 0.15660	6.0242e-09
 0.15714	6.1362e-09
 0.15768	6.2271e-09
 0.15822	6.2813e-09
 0.15876	6.2886e-09
 0.15930	6.2515e-09
 0.15984	6.1853e-09
 0.16038	6.1116e-09
 0.16092	6.0494e-09
 0.16146	6.0081e-09
 0.16200	5.9876e-09
 0.16254	5.9832e-09
 0.16308	5.9876e-09
 0.16362	5.9971e-09
 0.16416	6.0078e-09
 0.16470	6.0184e-09
 0.16524	6.0276e-09
 0.16578	6.0349e-09
 0.16632	6.0410e-09
 0.16686	6.0470e-09
 0.16740	6.0531e-09
 0.16794	6.0586e-09
 0.16848	6.0634e-09
 0.16902	6.0680e-09
 0.16956	6.0744e-09
 0.17010	6.0853e-09
 0.17064	6.1097e-09
 0.17118	6.1541e-09
 0.17172	6.2228e-09
 0.17226	6.3123e-09
 0.17280	6.4090e-09
 0.17334	6.4948e-09
 0.17388	6.5583e-09
 0.17442	6.5997e-09
 0.17496	6.6279e-09
 0.17550	6.6524e-09
 0.17604	6.6783e-09
 0.17658	6.7076e-09
 0.17712	6.7394e-09
 0.17766	6.7726e-09
 0.17820	6.8065e-09
 0.17874	6.8407e-09
 0.17928	6.8744e-09
 0.17982	6.9060e-09
 0.18036	6.9336e-09
 0.18090	6.9548e-09
 0.18144	6.9685e-09
 0.18198	6.9752e-09
 0.18252	6.9762e-09
 0.18306	6.9732e-09
 0.18360	6.9672e-09
 0.18414	6.9592e-09
 0.18468	6.9505e-09
 0.18522	6.9431e-09
 0.18576	6.9390e-09
 0.18630	6.9399e-09
 0.18684	6.9462e-09
 0.18738	6.9578e-09
 0.18792	6.9740e-09
 0.18846	6.9943e-09
 0.18900	7.0086e-09
 0.18954	7.0125e-09
 0.19008	7.0002e-09
 0.19062	6.9706e-09
 0.19116	6.9338e-09
 0.19170	6.9041e-09
 0.19224	6.8895e-09
 0.19278	6.8884e-09
 0.19332	6.8939e-09
 0.19386	6.9008e-09
 0.19440	6.9081e-09
 0.19494	6.9144e-09
 0.19548	6.9203e-09
 0.19602	6.9264e-09
 0.19656	6.9327e-09
 0.19710	6.9390e-09
 0.19764	6.9454e-09
 0.19818	6.9519e-09
 0.19872	6.9586e-09
 0.19926	6.9655e-09
 0.19980	6.9727e-09
 0.20034	6.9801e-09
 0.20088	6.9876e-09
 0.20142	6.9950e-09
 0.20196	7.0024e-09
 0.20250	7.0096e-09
 0.20304	7.0168e-09
 0.20358	7.0239e-09
 0.20412	7.0310e-09
 0.20466	7.0381e-09
 0.20520	7.0452e-09
 0.20574	7.0523e-09
 0.20628	7.0594e-09
 0.20682	7.0665e-09
 0.20736	7.0736e-09
 0.20790	7.0807e-09
 0.20844	7.0877e-09
 0.20898	7.0947e-09
 0.20952	7.1017e-09
 0.21006	7.1086e-09
 0.21060	7.1155e-09
 0.21114	7.1222e-09
 0.21168	7.1288e-09
 0.21222	7.1352e-09
 0.21276	7.1415e-09
 0.21330	7.1476e-09
 0.21384	7.1537e-09
 0.21438	7.1597e-09
 0.21492	7.1657e-09
 0.21546	7.1717e-09
 0.21600	7.1775e-09
 0.21654	7.1832e-09
 0.21708	7.1887e-09
 0.21762	7.1939e-09
 0.21816	7.1989e-09
 0.21870	7.2038e-09
 0.21924	7.2086e-09
 0.21978	7.2135e-09
 0.22032	7.2186e-09
 0.22086	7.2240e-09
 0.22140	7.2297e-09
 0.22194	7.2356e-09
 0.22248	7.2416e-09
 0.22302	7.2476e-09
 0.22356	7.2536e-09
 0.22410	7.2596e-09
 0.22464	7.2655e-09
 0.22518	7.2713e-09
 0.22572	7.2771e-09
 0.22626	7.2828e-09
 0.22680	7.2885e-09
 0.22734	7.2940e-09
 0.22788	7.2995e-09
 0.22842	7.3049e-09
 0.22896	7.3102e-09
 0.22950	7.3155e-09
 0.23004	7.3208e-09
 0.23058	7.3261e-09
 0.23112	7.3314e-09
 0.23166	7.3368e-09
 0.23220	7.3420e-09
 0.23274	7.3472e-09
 0.23328	7.3522e-09
 0.23382	7.3571e-09
 0.23436	7.3621e-09
 0.23490	7.3687e-09
 0.23544	7.3786e-09
 0.23598	7.3931e-09
 0.23652	7.4125e-09
 0.23706	7.4343e-09
 0.23760	7.4550e-09
 0.23814	7.4717e-09
 0.23868	7.4844e-09
 0.23922	7.4954e-09
 0.23976	7.5065e-09
 0.24030	7.5177e-09
 0.24084	7.5280e-09
 0.24138	7.5368e-09
 0.24192	7.5439e-09
 0.24246	7.5498e-09
 0.24300	7.5552e-09
 0.24354	7.5602e-09
 0.24408	7.5650e-09
 0.24462	7.5698e-09
 0.24516	7.5745e-09
 0.24570	7.5793e-09
 0.24624	7.5840e-09
 0.24678	7.5887e-09
 0.24732	7.5934e-09
 0.24786	7.5979e-09
 0.24840	7.6024e-09
 0.24894	7.6067e-09
 0.24948	7.6110e-09
 0.25002	7.6152e-09
 0.25056	7.6194e-09
 0.25110	7.6237e-09
 0.25164	7.6279e-09
 0.25218	7.6321e-09
 0.25272	7.6363e-09
 0.25326	7.6405e-09
 0.25380	7.6447e-09
 0.25434	7.6490e-09
 0.25488	7.6533e-09
 0.25542	7.6574e-09
 0.25596	7.6602e-09
 0.25650	7.6605e-09
 0.25704	7.6563e-09
 0.25758	7.6463e-09
 0.25812	7.6303e-09
 0.25866	7.6090e-09
 0.25920	7.5843e-09
 0.25974	7.5576e-09
 0.26028	7.5301e-09
 0.26082	7.5021e-09
 0.26136	7.4740e-09
 0.26190	7.4459e-09
 0.26244	7.4176e-09
 0.26298	7.3892e-09
 0.26352	7.3606e-09
 0.26406	7.3320e-09
 0.26460	7.3032e-09
 0.26514	7.2745e-09
 0.26568	7.2464e-09
 0.26622	7.2197e-09
 0.26676	7.1952e-09
 0.26730	7.1736e-09
 0.26784	7.1549e-09
 0.26838	7.1385e-09
 0.26892	7.1236e-09
 0.26946	7.1094e-09
 0.27000	7.0957e-09
 0.27054	7.0820e-09
 0.27108	7.0685e-09
 0.27162	7.0550e-09
 0.27216	7.0416e-09
 0.27270	7.0283e-09
 0.27324	7.0149e-09
 0.27378	7.0017e-09
 0.27432	6.9885e-09
 0.27486	6.9755e-09
 0.27540	6.9626e-09
 0.27594	6.9498e-09
 0.27648	6.9370e-09
 0.27702	6.9242e-09
 0.27756	6.9114e-09
 0.27810	6.8987e-09
 0.27864	6.8860e-09
 0.27918	6.8733e-09
 0.27972	6.8607e-09
 0.28026	6.8481e-09
 0.28080	6.8356e-09
 0.28134	6.8231e-09
 0.28188	6.8107e-09
 0.28242	6.7984e-09
 0.28296	6.7864e-09
 0.28350	6.7749e-09
 0.28404	6.7640e-09
 0.28458	6.7540e-09
 0.28512	6.7449e-09
 0.28566	6.7366e-09
 0.28620	6.7293e-09
 0.28674	6.7228e-09
 0.28728	6.7173e-09
 0.28782	6.7129e-09
 0.28836	6.7096e-09
 0.28890	6.7073e-09
 0.28944	6.7058e-09
 0.28998	6.7051e-09
 0.29052	6.7050e-09
 0.29106	6.7054e-09
 0.29160	6.7063e-09
 0.29214	6.7073e-09
 0.29268	6.7085e-09
 0.29322	6.7096e-09
 0.29376	6.7108e-09
 0.29430	6.7119e-09
 0.29484	6.7132e-09
 0.29538	6.7145e-09
 0.29592	6.7158e-09
 0.29646	6.7171e-09
 0.29700	6.7183e-09
 0.29754	6.7194e-09
 0.29808	6.7205e-09
 0.29862	6.7214e-09
 0.29916	6.7223e-09
 0.29970	6.7232e-09
 0.30024	6.7240e-09
 0.30078	6.7247e-09
 0.30132	6.7255e-09
 0.30186	6.7263e-09
 0.30240	6.7272e-09
 0.30294	6.7281e-09
 0.30348	6.7290e-09
 0.30402	6.7298e-09
 0.30456	6.7304e-09
 0.30510	6.7310e-09
 0.30564	6.7317e-09
 0.30618	6.7324e-09
 0.30672	6.7333e-09
 0.30726	6.7344e-09
 0.30780	6.7357e-09
 0.30834	6.7370e-09
 0.30888	6.7382e-09
 0.30942	6.7394e-09
 0.30996	6.7406e-09
 0.31050	6.7417e-09
 0.31104	6.7429e-09
 0.31158	6.7441e-09
 0.31212	6.7453e-09
 0.31266	6.7465e-09
 0.31320	6.7476e-09
 0.31374	6.7486e-09
 0.31428	6.7496e-09
 0.31482	6.7506e-09
 0.31536	6.7517e-09
 0.31590	6.7527e-09
 0.31644	6.7538e-09
 0.31698	6.7547e-09
 0.31752	6.7556e-09
 0.31806	6.7564e-09
 0.31860	6.7572e-09
 0.31914	6.7579e-09
 0.31968	6.7586e-09
 0.32022	6.7593e-09
 0.32076	6.7601e-09
 0.32130	6.7608e-09
 0.32184	6.7615e-09
 0.32238	6.7622e-09
 0.32292	6.7630e-09
 0.32346	6.7637e-09
 0.32400	6.7644e-09
 0.32454	6.7650e-09
 0.32508	6.7655e-09
 0.32562	6.7660e-09
 0.32616	6.7665e-09
 0.32670	6.7670e-09
 0.32724	6.7676e-09
 0.32778	6.7681e-09
 0.32832	6.7687e-09
 0.32886	6.7692e-09
 0.32940	6.7696e-09
 0.32994	6.7701e-09
 0.33048	6.7705e-09
 0.33102	6.7709e-09
 0.33156	6.7713e-09
 0.33210	6.7718e-09
 0.33264	6.7722e-09
 0.33318	6.7726e-09
 0.33372	6.7729e-09
 0.33426	6.7733e-09
 0.33480	6.7737e-09
 0.33534	6.7741e-09
 0.33588	6.7745e-09
 0.33642	6.7749e-09
 0.33696	6.7753e-09
 0.33750	6.7757e-09
 0.33804	6.7760e-09
 0.33858	6.7763e-09
 0.33912	6.7766e-09
 0.33966	6.7769e-09
 0.34020	6.7773e-09
 0.34074	6.7777e-09
 0.34128	6.7781e-09
 0.34182	6.7785e-09
 0.34236	6.7789e-09
 0.34290	6.7792e-09
 0.34344	6.7796e-09
 0.34398	6.7800e-09
 0.34452	6.7804e-09
 0.34506	6.7808e-09
 0.34560	6.7812e-09
 0.34614	6.7816e-09
 0.34668	6.7820e-09
 0.34722	6.7823e-09
 0.34776	6.7827e-09
 0.34830	6.7831e-09
 0.34884	6.7834e-09
 0.34938	6.7838e-09
 0.34992	6.7841e-09
 0.35046	6.7845e-09
 0.35100	6.7848e-09
 0.35154	6.7852e-09
 0.35208	6.7855e-09
 0.35262	6.7859e-09
 0.35316	6.7862e-09
 0.35370	6.7866e-09
 0.35424	6.7869e-09
 0.35478	6.7873e-09
 0.35532	6.7876e-09
 0.35586	6.7880e-09
 0.35640	6.7883e-09
 0.35694	6.7887e-09
 0.35748	6.7890e-09
 0.35802	6.7894e-09
 0.35856	6.7897e-09
 0.35910	6.7900e-09
 0.35964	6.7904e-09
 0.36018	6.7908e-09
 0.36072	6.7911e-09
 0.36126	6.7915e-09
 0.36180	6.7918e-09
 0.36234	6.7922e-09
 0.36288	6.7925e-09
 0.36342	6.7929e-09
 0.36396	6.7932e-09
 0.36450	6.7935e-09
 0.36504	6.7939e-09
 0.36558	6.7943e-09
 0.36612	6.7946e-09
 0.36666	6.7950e-09
 0.36720	6.7953e-09
 0.36774	6.7956e-09
 0.36828	6.7960e-09
 0.36882	6.7963e-09
 0.36936	6.7966e-09
 0.36990	6.7970e-09
 0.37044	6.7973e-09
 0.37098	6.7977e-09
 0.37152	6.7980e-09
 0.37206	6.7983e-09
 0.37260	6.7987e-09
 0.37314	6.7990e-09
 0.37368	6.7994e-09
 0.37422	6.7998e-09
 0.37476	6.8002e-09
 0.37530	6.8007e-09
 0.37584	6.8012e-09
 0.37638	6.8017e-09
 0.37692	6.8021e-09
 0.37746	6.8025e-09
 0.37800	6.8028e-09
 0.37854	6.8032e-09
 0.37908	6.8035e-09
 0.37962	6.8038e-09
 0.38016	6.8041e-09
 0.38070	6.8044e-09
 0.38124	6.8047e-09
 0.38178	6.8051e-09
 0.38232	6.8054e-09
 0.38286	6.8057e-09
 0.38340	6.8060e-09
 0.38394	6.8063e-09
 0.38448	6.8066e-09
 0.38502	6.8068e-09
 0.38556	6.8071e-09
 0.38610	6.8074e-09
 0.38664	6.8077e-09
 0.38718	6.8080e-09
 0.38772	6.8082e-09
 0.38826	6.8085e-09
 0.38880	6.8087e-09
 0.38934	6.8090e-09
 0.38988	6.8093e-09
 0.39042	6.8095e-09
 0.39096	6.8098e-09
 0.39150	6.8100e-09
 0.39204	6.8103e-09
 0.39258	6.8106e-09
 0.39312	6.8108e-09
 0.39366	6.8111e-09
 0.39420	6.8113e-09
 0.39474	6.8116e-09
 0.39528	6.8118e-09
 0.39582	6.8121e-09
 0.39636	6.8123e-09
 0.39690	6.8126e-09
 0.39744	6.8128e-09
 0.39798	6.8131e-09
 0.39852	6.8133e-09
 0.39906	6.8136e-09
 0.39960	6.8138e-09
 0.40014	6.8141e-09
 0.40068	6.8144e-09
 0.40122	6.8146e-09
 0.40176	6.8148e-09
 0.40230	6.8151e-09
 0.40284	6.8154e-09
 0.40338	6.8156e-09
 0.40392	6.8159e-09
 0.40446	6.8161e-09
 0.40500	6.8164e-09
 0.40554	6.8166e-09
 0.40608	6.8169e-09
 0.40662	6.8171e-09
 0.40716	6.8174e-09
 0.40770	6.8176e-09
 0.40824	6.8178e-09
 0.40878	6.8179e-09
 0.40932	6.8180e-09
 0.40986	6.8181e-09
 0.41040	6.8182e-09
 0.41094	6.8183e-09
 0.41148	6.8185e-09
 0.41202	6.8187e-09
 0.41256	6.8190e-09
 0.41310	6.8192e-09
 0.41364	6.8194e-09
 0.41418	6.8197e-09
 0.41472	6.8199e-09
 0.41526	6.8202e-09
 0.41580	6.8204e-09
 0.41634	6.8207e-09
 0.41688	6.8209e-09
 0.41742	6.8212e-09
 0.41796	6.8214e-09
 0.41850	6.8216e-09
 0.41904	6.8219e-09
 0.41958	6.8221e-09
 0.42012	6.8224e-09
 0.42066	6.8227e-09
 0.42120	6.8229e-09
 0.42174	6.8232e-09
 0.42228	6.8235e-09
 0.42282	6.8237e-09
 0.42336	6.8240e-09
 0.42390	6.8243e-09
 0.42444	6.8245e-09
 0.42498	6.8248e-09
 0.42552	6.8251e-09
 0.42606	6.8254e-09
 0.42660	6.8257e-09
 0.42714	6.8260e-09
 0.42768	6.8262e-09
 0.42822	6.8265e-09
 0.42876	6.8268e-09
 0.42930	6.8270e-09
 0.42984	6.8273e-09
 0.43038	6.8276e-09
 0.43092	6.8279e-09
 0.43146	6.8282e-09
 0.43200	6.8285e-09
 0.43254	6.8288e-09
 0.43308	6.8292e-09
 0.43362	6.8295e-09
 0.43416	6.8298e-09
 0.43470	6.8301e-09
 0.43524	6.8304e-09
 0.43578	6.8307e-09
 0.43632	6.8310e-09
 0.43686	6.8314e-09
 0.43740	6.8317e-09
 0.43794	6.8321e-09
 0.43848	6.8324e-09
 0.43902	6.8327e-09
 0.43956	6.8331e-09
 0.44010	6.8334e-09
 0.44064	6.8338e-09
 0.44118	6.8341e-09
 0.44172	6.8345e-09
 0.44226	6.8348e-09
 0.44280	6.8352e-09
 0.44334	6.8355e-09
 0.44388	6.8359e-09
 0.44442	6.8362e-09
 0.44496	6.8365e-09
 0.44550	6.8368e-09
 0.44604	6.8372e-09
 0.44658	6.8377e-09
 0.44712	6.8385e-09
 0.44766	6.8397e-09
 0.44820	6.8411e-09
 0.44874	6.8427e-09
 0.44928	6.8443e-09
 0.44982	6.8460e-09
 0.45036	6.8478e-09
 0.45090	6.8496e-09
 0.45144	6.8515e-09
 0.45198	6.8533e-09
 0.45252	6.8549e-09
 0.45306	6.8564e-09
 0.45360	6.8579e-09
 0.45414	6.8594e-09
 0.45468	6.8611e-09
 0.45522	6.8628e-09
 0.45576	6.8645e-09
 0.45630	6.8662e-09
 0.45684	6.8679e-09
 0.45738	6.8696e-09
 0.45792	6.8712e-09
 0.45846	6.8729e-09
 0.45900	6.8745e-09
 0.45954	6.8762e-09
 0.46008	6.8778e-09
 0.46062	6.8794e-09
 0.46116	6.8810e-09
 0.46170	6.8826e-09
 0.46224	6.8842e-09
 0.46278	6.8858e-09
 0.46332	6.8874e-09
 0.46386	6.8890e-09
 0.46440	6.8906e-09
 0.46494	6.8922e-09
 0.46548	6.8938e-09
 0.46602	6.8954e-09
 0.46656	6.8970e-09
 0.46710	6.8986e-09
 0.46764	6.9001e-09
 0.46818	6.9017e-09
 0.46872	6.9032e-09
 0.46926	6.9047e-09
 0.46980	6.9063e-09
 0.47034	6.9078e-09
 0.47088	6.9094e-09
 0.47142	6.9110e-09
 0.47196	6.9125e-09
 0.47250	6.9141e-09
 0.47304	6.9156e-09
 0.47358	6.9171e-09
 0.47412	6.9187e-09
 0.47466	6.9203e-09
 0.47520	6.9219e-09
 0.47574	6.9236e-09
 0.47628	6.9252e-09
 0.47682	6.9268e-09
 0.47736	6.9283e-09
 0.47790	6.9297e-09
 0.47844	6.9311e-09
 0.47898	6.9323e-09
 0.47952	6.9335e-09
 0.48006	6.9347e-09
 0.48060	6.9358e-09
 0.48114	6.9371e-09
 0.48168	6.9385e-09
 0.48222	6.9399e-09
 0.48276	6.9413e-09
 0.48330	6.9427e-09
 0.48384	6.9441e-09
 0.48438	6.9454e-09
 0.48492	6.9468e-09
 0.48546	6.9481e-09
 0.48600	6.9494e-09
 0.48654	6.9507e-09
 0.48708	6.9520e-09
 0.48762	6.9533e-09
 0.48816	6.9547e-09
 0.48870	6.9560e-09
 0.48924	6.9573e-09
 0.48978	6.9586e-09
 0.49032	6.9598e-09
 0.49086	6.9611e-09
 0.49140	6.9624e-09
 0.49194	6.9637e-09
 0.49248	6.9652e-09
 0.49302	6.9666e-09
 0.49356	6.9681e-09
 0.49410	6.9695e-09
 0.49464	6.9708e-09
 0.49518	6.9721e-09
 0.49572	6.9733e-09
 0.49626	6.9744e-09
 0.49680	6.9756e-09
 0.49734	6.9767e-09
 0.49788	6.9779e-09
 0.49842	6.9790e-09
 0.49896	6.9801e-09
 0.49950	6.9813e-09
 0.50004	6.9824e-09
 0.50058	6.9836e-09
 0.50112	6.9848e-09
 0.50166	6.9860e-09
 0.50220	6.9872e-09
 0.50274	6.9884e-09
 0.50328	6.9895e-09
 0.50382	6.9907e-09
 0.50436	6.9919e-09
 0.50490	6.9931e-09
 0.50544	6.9942e-09
 0.50598	6.9954e-09
 0.50652	6.9966e-09
 0.50706	6.9978e-09
 0.50760	6.9989e-09
 0.50814	7.0001e-09
 0.50868	7.0013e-09
 0.50922	7.0025e-09
 0.50976	7.0037e-09
 0.51030	7.0051e-09
 0.51084	7.0064e-09
 0.51138	7.0078e-09
 0.51192	7.0092e-09
 0.51246	7.0104e-09
 0.51300	7.0116e-09
 0.51354	7.0127e-09
 0.51408	7.0137e-09
 0.51462	7.0146e-09
 0.51516	7.0155e-09
 0.51570	7.0164e-09
 0.51624	7.0173e-09
 0.51678	7.0183e-09
 0.51732	7.0193e-09
 0.51786	7.0205e-09
 0.51840	7.0217e-09
 0.51894	7.0229e-09
 0.51948	7.0242e-09
 0.52002	7.0254e-09
 0.52056	7.0264e-09
 0.52110	7.0274e-09
 0.52164	7.0283e-09
 0.52218	7.0292e-09
 0.52272	7.0302e-09
 0.52326	7.0313e-09
 0.52380	7.0325e-09
 0.52434	7.0337e-09
 0.52488	7.0348e-09
 0.52542	7.0359e-09
 0.52596	7.0370e-09
 0.52650	7.0380e-09
 0.52704	7.0390e-09
 0.52758	7.0400e-09
 0.52812	7.0411e-09
 0.52866	7.0421e-09
 0.52920	7.0432e-09
 0.52974	7.0442e-09
 0.53028	7.0452e-09
 0.53082	7.0461e-09
 0.53136	7.0469e-09
 0.53190	7.0477e-09
 0.53244	7.0486e-09
 0.53298	7.0495e-09
 0.53352	7.0504e-09
 0.53406	7.0513e-09
 0.53460	7.0523e-09
 0.53514	7.0533e-09
 0.53568	7.0544e-09
 0.53622	7.0556e-09
 0.53676	7.0569e-09
 0.53730	7.0580e-09
 0.53784	7.0590e-09
 0.53838	7.0598e-09
 0.53892	7.0604e-09
