Time	Current
 0.00000	1.1758e-14
 0.00054	1.1758e-14
 0.00108	1.1758e-14
 0.00162	1.1758e-14
 0.00216	1.1758e-14
 0.00270	1.1758e-14
 0.00324	1.1758e-14
 0.00378	1.1758e-14
 0.00432	1.1758e-14
 0.00486	1.1758e-14
 0.00540	1.1758e-14
 0.00594	1.1758e-14
 0.00648	1.1758e-14
 0.00702	1.1758e-14
 0.00756	1.7483e-12
 0.00810	1.1600e-11
 0.00864	3.7682e-11
 0.00918	8.9488e-11
 0.00972	1.7262e-10
 0.01026	2.8376e-10
 0.01080	4.1082e-10
 0.01134	5.3889e-10
 0.01188	6.5677e-10
 0.01242	7.5932e-10
 0.01296	8.4595e-10
 0.01350	9.1808e-10
 0.01404	9.7815e-10
 0.01458	1.0281e-09
 0.01512	1.0695e-09
 0.01566	1.1034e-09
 0.01620	1.1310e-09
 0.01674	1.1531e-09
 0.01728	1.1704e-09
 0.01782	1.1835e-09
 0.01836	1.1928e-09
 0.01890	1.1988e-09
 0.01944	1.2020e-09
 0.01998	1.2026e-09
 0.02052	1.2008e-09
 0.02106	1.1971e-09
 0.02160	1.1915e-09
 0.02214	1.1843e-09
 0.02268	1.1757e-09
 0.02322	1.1658e-09
 0.02376	1.1547e-09
 0.02430	1.1427e-09
 0.02484	1.1297e-09
 0.02538	1.1160e-09
 0.02592	1.1015e-09
 0.02646	1.0865e-09
 0.02700	1.0710e-09
 0.02754	1.0550e-09
 0.02808	1.0386e-09
 0.02862	1.0220e-09
 0.02916	1.0051e-09
 0.02970	9.8794e-10
 0.03024	9.7068e-10
 0.03078	9.5333e-10
 0.03132	9.3594e-10
 0.03186	9.1854e-10
 0.03240	9.0118e-10
 0.03294	8.8388e-10
 0.03348	8.6667e-10
 0.03402	8.4958e-10
 0.03456	8.3265e-10
 0.03510	8.1591e-10
 0.03564	7.9938e-10
 0.03618	7.8308e-10
 0.03672	7.6703e-10
 0.03726	7.5125e-10
 0.03780	7.3575e-10
 0.03834	7.2056e-10
 0.03888	7.0606e-10
 0.03942	6.9251e-10
 0.03996	6.8009e-10
 0.04050	6.6831e-10
 0.04104	6.5626e-10
 0.04158	6.4293e-10
 0.04212	6.2773e-10
 0.04266	6.1132e-10
 0.04320	5.9497e-10
 0.04374	5.7957e-10
 0.04428	5.6514e-10
 0.04482	5.5138e-10
 0.04536	5.3813e-10
 0.04590	5.2544e-10
 0.04644	5.1341e-10
 0.04698	5.0207e-10
 0.04752	4.9146e-10
 0.04806	4.8155e-10
 0.04860	4.7226e-10
 0.04914	4.6355e-10
 0.04968	4.5537e-10
 0.05022	4.4767e-10
 0.05076	4.4042e-10
 0.05130	4.3357e-10
 0.05184	4.2709e-10
 0.05238	4.2096e-10
 0.05292	4.1516e-10
 0.05346	4.0964e-10
 0.05400	4.0438e-10
 0.05454	3.9936e-10
 0.05508	3.9456e-10
 0.05562	3.8997e-10
 0.05616	3.8557e-10
 0.05670	3.8135e-10
 0.05724	3.7729e-10
 0.05778	3.7337e-10
 0.05832	3.6958e-10
 0.05886	3.6591e-10
 0.05940	3.6236e-10
 0.05994	3.5893e-10
 0.06048	3.5560e-10
 0.06102	3.5237e-10
 0.06156	3.4924e-10
 0.06210	3.4619e-10
 0.06264	3.4321e-10
 0.06318	3.4032e-10
 0.06372	3.3749e-10
 0.06426	3.3472e-10
 0.06480	3.3200e-10
 0.06534	3.2934e-10
 0.06588	3.2673e-10
 0.06642	3.2419e-10
 0.06696	3.2170e-10
 0.06750	3.1926e-10
 0.06804	3.1687e-10
 0.06858	3.1452e-10
 0.06912	3.1221e-10
 0.06966	3.0993e-10
 0.07020	3.0768e-10
 0.07074	3.0547e-10
 0.07128	3.0329e-10
 0.07182	3.0114e-10
 0.07236	2.9902e-10
 0.07290	2.9693e-10
 0.07344	2.9486e-10
 0.07398	2.9283e-10
 0.07452	2.9081e-10
 0.07506	2.8882e-10
 0.07560	2.8686e-10
 0.07614	2.8494e-10
 0.07668	2.8303e-10
 0.07722	2.8114e-10
 0.07776	2.7927e-10
 0.07830	2.7743e-10
 0.07884	2.7561e-10
 0.07938	2.7381e-10
 0.07992	2.7202e-10
 0.08046	2.7025e-10
 0.08100	2.6849e-10
 0.08154	2.6675e-10
 0.08208	2.6504e-10
 0.08262	2.6334e-10
 0.08316	2.6166e-10
 0.08370	2.5998e-10
 0.08424	2.5832e-10
 0.08478	2.5668e-10
 0.08532	2.5505e-10
 0.08586	2.5344e-10
 0.08640	2.5185e-10
 0.08694	2.5025e-10
 0.08748	2.4867e-10
 0.08802	2.4709e-10
 0.08856	2.4553e-10
 0.08910	2.4398e-10
 0.08964	2.4246e-10
 0.09018	2.4094e-10
 0.09072	2.3944e-10
 0.09126	2.3796e-10
 0.09180	2.3649e-10
 0.09234	2.3504e-10
 0.09288	2.3359e-10
 0.09342	2.3214e-10
 0.09396	2.3069e-10
 0.09450	2.2924e-10
 0.09504	2.2781e-10
 0.09558	2.2641e-10
 0.09612	2.2502e-10
 0.09666	2.2364e-10
 0.09720	2.2227e-10
 0.09774	2.2089e-10
 0.09828	2.1952e-10
 0.09882	2.1816e-10
 0.09936	2.1681e-10
 0.09990	2.1546e-10
 0.10044	2.1413e-10
 0.10098	2.1282e-10
 0.10152	2.1151e-10
 0.10206	2.1022e-10
 0.10260	2.0894e-10
 0.10314	2.0767e-10
 0.10368	2.0640e-10
 0.10422	2.0513e-10
 0.10476	2.0387e-10
 0.10530	2.0263e-10
 0.10584	2.0139e-10
 0.10638	2.0017e-10
 0.10692	1.9895e-10
 0.10746	1.9773e-10
 0.10800	1.9651e-10
 0.10854	1.9530e-10
 0.10908	1.9409e-10
 0.10962	1.9290e-10
 0.11016	1.9170e-10
 0.11070	1.9052e-10
 0.11124	1.8935e-10
 0.11178	1.8819e-10
 0.11232	1.8705e-10
 0.11286	1.8591e-10
 0.11340	1.8479e-10
 0.11394	1.8367e-10
 0.11448	1.8256e-10
 0.11502	1.8145e-10
 0.11556	1.8034e-10
 0.11610	1.7923e-10
 0.11664	1.7812e-10
 0.11718	1.7702e-10
 0.11772	1.7592e-10
 0.11826	1.7484e-10
 0.11880	1.7376e-10
 0.11934	1.7271e-10
 0.11988	1.7166e-10
 0.12042	1.7063e-10
 0.12096	1.6959e-10
 0.12150	1.6854e-10
 0.12204	1.6750e-10
 0.12258	1.6647e-10
 0.12312	1.6545e-10
 0.12366	1.6444e-10
 0.12420	1.6343e-10
 0.12474	1.6243e-10
 0.12528	1.6143e-10
 0.12582	1.6045e-10
 0.12636	1.5947e-10
 0.12690	1.5850e-10
 0.12744	1.5753e-10
 0.12798	1.5656e-10
 0.12852	1.5559e-10
 0.12906	1.5464e-10
 0.12960	1.5369e-10
 0.13014	1.5274e-10
 0.13068	1.5181e-10
 0.13122	1.5087e-10
 0.13176	1.4995e-10
 0.13230	1.4904e-10
 0.13284	1.4813e-10
 0.13338	1.4723e-10
 0.13392	1.4633e-10
 0.13446	1.4542e-10
 0.13500	1.4452e-10
 0.13554	1.4362e-10
 0.13608	1.4275e-10
 0.13662	1.4188e-10
 0.13716	1.4102e-10
 0.13770	1.4016e-10
 0.13824	1.3931e-10
 0.13878	1.3845e-10
 0.13932	1.3760e-10
 0.13986	1.3675e-10
 0.14040	1.3590e-10
 0.14094	1.3507e-10
 0.14148	1.3424e-10
 0.14202	1.3341e-10
 0.14256	1.3259e-10
 0.14310	1.3177e-10
 0.14364	1.3096e-10
 0.14418	1.3016e-10
 0.14472	1.2937e-10
 0.14526	1.2859e-10
 0.14580	1.2781e-10
 0.14634	1.2703e-10
 0.14688	1.2624e-10
 0.14742	1.2544e-10
 0.14796	1.2466e-10
 0.14850	1.2388e-10
 0.14904	1.2312e-10
 0.14958	1.2236e-10
 0.15012	1.2161e-10
 0.15066	1.2087e-10
 0.15120	1.2013e-10
 0.15174	1.1940e-10
 0.15228	1.1867e-10
 0.15282	1.1793e-10
 0.15336	1.1720e-10
 0.15390	1.1648e-10
 0.15444	1.1577e-10
 0.15498	1.1507e-10
 0.15552	1.1437e-10
 0.15606	1.1367e-10
 0.15660	1.1297e-10
 0.15714	1.1228e-10
 0.15768	1.1159e-10
 0.15822	1.1090e-10
 0.15876	1.1021e-10
 0.15930	1.0953e-10
 0.15984	1.0886e-10
 0.16038	1.0818e-10
 0.16092	1.0752e-10
 0.16146	1.0685e-10
 0.16200	1.0618e-10
 0.16254	1.0552e-10
 0.16308	1.0487e-10
 0.16362	1.0423e-10
 0.16416	1.0360e-10
 0.16470	1.0297e-10
 0.16524	1.0234e-10
 0.16578	1.0170e-10
 0.16632	1.0107e-10
 0.16686	1.0045e-10
 0.16740	9.9839e-11
 0.16794	9.9227e-11
 0.16848	9.8611e-11
 0.16902	9.7988e-11
 0.16956	9.7375e-11
 0.17010	9.6773e-11
 0.17064	9.6183e-11
 0.17118	9.5593e-11
 0.17172	9.5002e-11
 0.17226	9.4419e-11
 0.17280	9.3838e-11
 0.17334	9.3265e-11
 0.17388	9.2689e-11
 0.17442	9.2116e-11
 0.17496	9.1546e-11
 0.17550	9.0980e-11
 0.17604	9.0417e-11
 0.17658	8.9855e-11
 0.17712	8.9302e-11
 0.17766	8.8755e-11
 0.17820	8.8215e-11
 0.17874	8.7674e-11
 0.17928	8.7136e-11
 0.17982	8.6599e-11
 0.18036	8.6070e-11
 0.18090	8.5551e-11
 0.18144	8.5036e-11
 0.18198	8.4515e-11
 0.18252	8.3987e-11
 0.18306	8.3461e-11
 0.18360	8.2942e-11
 0.18414	8.2430e-11
 0.18468	8.1911e-11
 0.18522	8.1395e-11
 0.18576	8.0886e-11
 0.18630	8.0388e-11
 0.18684	7.9899e-11
 0.18738	7.9420e-11
 0.18792	7.8940e-11
 0.18846	7.8454e-11
 0.18900	7.7966e-11
 0.18954	7.7486e-11
 0.19008	7.7013e-11
 0.19062	7.6541e-11
 0.19116	7.6067e-11
 0.19170	7.5594e-11
 0.19224	7.5123e-11
 0.19278	7.4657e-11
 0.19332	7.4201e-11
 0.19386	7.3745e-11
 0.19440	7.3286e-11
 0.19494	7.2820e-11
 0.19548	7.2351e-11
 0.19602	7.1897e-11
 0.19656	7.1465e-11
 0.19710	7.1041e-11
 0.19764	7.0622e-11
 0.19818	7.0197e-11
 0.19872	6.9761e-11
 0.19926	6.9321e-11
 0.19980	6.8882e-11
 0.20034	6.8450e-11
 0.20088	6.8028e-11
 0.20142	6.7612e-11
 0.20196	6.7201e-11
 0.20250	6.6795e-11
 0.20304	6.6385e-11
 0.20358	6.5973e-11
 0.20412	6.5564e-11
 0.20466	6.5159e-11
 0.20520	6.4761e-11
 0.20574	6.4372e-11
 0.20628	6.3990e-11
 0.20682	6.3608e-11
 0.20736	6.3216e-11
 0.20790	6.2813e-11
 0.20844	6.2409e-11
 0.20898	6.2017e-11
 0.20952	6.1637e-11
 0.21006	6.1265e-11
 0.21060	6.0893e-11
 0.21114	6.0515e-11
 0.21168	6.0137e-11
 0.21222	5.9760e-11
 0.21276	5.9389e-11
 0.21330	5.9025e-11
 0.21384	5.8671e-11
 0.21438	5.8322e-11
 0.21492	5.7999e-11
 0.21546	5.7786e-11
 0.21600	5.7849e-11
 0.21654	5.8421e-11
 0.21708	5.9757e-11
 0.21762	6.2025e-11
 0.21816	6.5232e-11
 0.21870	6.9265e-11
 0.21924	7.3975e-11
 0.21978	7.9249e-11
 0.22032	8.5023e-11
 0.22086	9.1278e-11
 0.22140	9.8027e-11
 0.22194	1.0530e-10
 0.22248	1.1312e-10
 0.22302	1.2152e-10
 0.22356	1.3054e-10
 0.22410	1.4020e-10
 0.22464	1.5049e-10
 0.22518	1.6133e-10
 0.22572	1.7256e-10
 0.22626	1.8397e-10
 0.22680	1.9534e-10
 0.22734	2.0659e-10
 0.22788	2.1776e-10
 0.22842	2.2902e-10
 0.22896	2.4056e-10
 0.22950	2.5252e-10
 0.23004	2.6496e-10
 0.23058	2.7793e-10
 0.23112	2.9143e-10
 0.23166	3.0547e-10
 0.23220	3.2004e-10
 0.23274	3.3514e-10
 0.23328	3.5076e-10
 0.23382	3.6687e-10
 0.23436	3.8346e-10
 0.23490	4.0052e-10
 0.23544	4.1802e-10
 0.23598	4.3595e-10
 0.23652	4.5431e-10
 0.23706	4.7308e-10
 0.23760	4.9223e-10
 0.23814	5.1173e-10
 0.23868	5.3153e-10
 0.23922	5.5161e-10
 0.23976	5.7191e-10
 0.24030	5.9242e-10
 0.24084	6.1310e-10
 0.24138	6.3393e-10
 0.24192	6.5488e-10
 0.24246	6.7589e-10
 0.24300	6.9694e-10
 0.24354	7.1800e-10
 0.24408	7.3903e-10
 0.24462	7.6000e-10
 0.24516	7.8086e-10
 0.24570	8.0154e-10
 0.24624	8.2198e-10
 0.24678	8.4206e-10
 0.24732	8.6171e-10
 0.24786	8.8086e-10
 0.24840	8.9949e-10
 0.24894	9.1759e-10
 0.24948	9.3520e-10
 0.25002	9.5233e-10
 0.25056	9.6896e-10
 0.25110	9.8504e-10
 0.25164	1.0005e-09
 0.25218	1.0153e-09
 0.25272	1.0295e-09
 0.25326	1.0428e-09
 0.25380	1.0555e-09
 0.25434	1.0672e-09
 0.25488	1.0782e-09
 0.25542	1.0924e-09
 0.25596	1.1201e-09
 0.25650	1.1758e-09
 0.25704	1.2762e-09
 0.25758	1.4313e-09
 0.25812	1.6374e-09
 0.25866	1.8772e-09
 0.25920	2.1282e-09
 0.25974	2.3724e-09
 0.26028	2.6004e-09
 0.26082	2.8096e-09
 0.26136	3.0011e-09
 0.26190	3.1776e-09
 0.26244	3.3413e-09
 0.26298	3.4941e-09
 0.26352	3.6373e-09
 0.26406	3.7722e-09
 0.26460	3.8997e-09
 0.26514	4.0191e-09
 0.26568	4.1276e-09
 0.26622	4.2210e-09
 0.26676	4.2942e-09
 0.26730	4.3438e-09
 0.26784	4.3710e-09
 0.26838	4.3808e-09
 0.26892	4.3799e-09
 0.26946	4.3737e-09
 0.27000	4.3652e-09
 0.27054	4.3559e-09
 0.27108	4.3464e-09
 0.27162	4.3366e-09
 0.27216	4.3268e-09
 0.27270	4.3168e-09
 0.27324	4.3068e-09
 0.27378	4.2967e-09
 0.27432	4.2864e-09
 0.27486	4.2759e-09
 0.27540	4.2651e-09
 0.27594	4.2541e-09
 0.27648	4.2431e-09
 0.27702	4.2319e-09
 0.27756	4.2207e-09
 0.27810	4.2095e-09
 0.27864	4.1982e-09
 0.27918	4.1869e-09
 0.27972	4.1755e-09
 0.28026	4.1641e-09
 0.28080	4.1527e-09
 0.28134	4.1413e-09
 0.28188	4.1299e-09
 0.28242	4.1187e-09
 0.28296	4.1080e-09
 0.28350	4.0980e-09
 0.28404	4.0893e-09
 0.28458	4.0822e-09
 0.28512	4.0768e-09
 0.28566	4.0726e-09
 0.28620	4.0684e-09
 0.28674	4.0621e-09
 0.28728	4.0517e-09
 0.28782	4.0355e-09
 0.28836	4.0135e-09
 0.28890	3.9877e-09
 0.28944	3.9611e-09
 0.28998	3.9367e-09
 0.29052	3.9162e-09
 0.29106	3.8995e-09
 0.29160	3.8858e-09
 0.29214	3.8738e-09
 0.29268	3.8627e-09
 0.29322	3.8519e-09
 0.29376	3.8414e-09
 0.29430	3.8310e-09
 0.29484	3.8207e-09
 0.29538	3.8105e-09
 0.29592	3.8003e-09
 0.29646	3.7903e-09
 0.29700	3.7802e-09
 0.29754	3.7702e-09
 0.29808	3.7601e-09
 0.29862	3.7497e-09
 0.29916	3.7390e-09
 0.29970	3.7279e-09
 0.30024	3.7163e-09
 0.30078	3.7044e-09
 0.30132	3.6923e-09
 0.30186	3.6801e-09
 0.30240	3.6680e-09
 0.30294	3.6560e-09
 0.30348	3.6441e-09
 0.30402	3.6322e-09
 0.30456	3.6204e-09
 0.30510	3.6089e-09
 0.30564	3.5983e-09
 0.30618	3.5891e-09
 0.30672	3.5822e-09
 0.30726	3.5778e-09
 0.30780	3.5759e-09
 0.30834	3.5757e-09
 0.30888	3.5768e-09
 0.30942	3.5784e-09
 0.30996	3.5802e-09
 0.31050	3.5822e-09
 0.31104	3.5842e-09
 0.31158	3.5861e-09
 0.31212	3.5881e-09
 0.31266	3.5901e-09
 0.31320	3.5919e-09
 0.31374	3.5937e-09
 0.31428	3.5954e-09
 0.31482	3.5971e-09
 0.31536	3.5987e-09
 0.31590	3.6002e-09
 0.31644	3.6017e-09
 0.31698	3.6031e-09
 0.31752	3.6046e-09
 0.31806	3.6059e-09
 0.31860	3.6072e-09
 0.31914	3.6085e-09
 0.31968	3.6097e-09
 0.32022	3.6108e-09
 0.32076	3.6119e-09
 0.32130	3.6129e-09
 0.32184	3.6138e-09
 0.32238	3.6148e-09
 0.32292	3.6156e-09
 0.32346	3.6164e-09
 0.32400	3.6171e-09
 0.32454	3.6176e-09
 0.32508	3.6180e-09
 0.32562	3.6184e-09
 0.32616	3.6186e-09
 0.32670	3.6188e-09
 0.32724	3.6190e-09
 0.32778	3.6192e-09
 0.32832	3.6193e-09
 0.32886	3.6194e-09
 0.32940	3.6194e-09
 0.32994	3.6193e-09
 0.33048	3.6191e-09
 0.33102	3.6189e-09
 0.33156	3.6187e-09
 0.33210	3.6183e-09
 0.33264	3.6179e-09
 0.33318	3.6174e-09
 0.33372	3.6168e-09
 0.33426	3.6162e-09
 0.33480	3.6155e-09
 0.33534	3.6148e-09
 0.33588	3.6141e-09
 0.33642	3.6133e-09
 0.33696	3.6125e-09
 0.33750	3.6115e-09
 0.33804	3.6106e-09
 0.33858	3.6095e-09
 0.33912	3.6084e-09
 0.33966	3.6072e-09
 0.34020	3.6061e-09
 0.34074	3.6049e-09
 0.34128	3.6036e-09
 0.34182	3.6023e-09
 0.34236	3.6010e-09
 0.34290	3.5997e-09
 0.34344	3.5983e-09
 0.34398	3.5968e-09
 0.34452	3.5954e-09
 0.34506	3.5938e-09
 0.34560	3.5923e-09
 0.34614	3.5907e-09
 0.34668	3.5890e-09
 0.34722	3.5873e-09
 0.34776	3.5856e-09
 0.34830	3.5838e-09
 0.34884	3.5819e-09
 0.34938	3.5800e-09
 0.34992	3.5780e-09
 0.35046	3.5760e-09
 0.35100	3.5740e-09
 0.35154	3.5720e-09
 0.35208	3.5700e-09
 0.35262	3.5679e-09
 0.35316	3.5658e-09
 0.35370	3.5636e-09
 0.35424	3.5613e-09
 0.35478	3.5591e-09
 0.35532	3.5568e-09
 0.35586	3.5545e-09
 0.35640	3.5522e-09
 0.35694	3.5498e-09
 0.35748	3.5474e-09
 0.35802	3.5449e-09
 0.35856	3.5424e-09
 0.35910	3.5399e-09
 0.35964	3.5374e-09
 0.36018	3.5348e-09
 0.36072	3.5322e-09
 0.36126	3.5295e-09
 0.36180	3.5269e-09
 0.36234	3.5242e-09
 0.36288	3.5214e-09
 0.36342	3.5186e-09
 0.36396	3.5157e-09
 0.36450	3.5129e-09
 0.36504	3.5099e-09
 0.36558	3.5070e-09
 0.36612	3.5040e-09
 0.36666	3.5010e-09
 0.36720	3.4980e-09
 0.36774	3.4949e-09
 0.36828	3.4918e-09
 0.36882	3.4886e-09
 0.36936	3.4854e-09
 0.36990	3.4822e-09
 0.37044	3.4789e-09
 0.37098	3.4756e-09
 0.37152	3.4723e-09
 0.37206	3.4689e-09
 0.37260	3.4655e-09
 0.37314	3.4621e-09
 0.37368	3.4586e-09
 0.37422	3.4551e-09
 0.37476	3.4516e-09
 0.37530	3.4481e-09
 0.37584	3.4445e-09
 0.37638	3.4409e-09
 0.37692	3.4372e-09
 0.37746	3.4335e-09
 0.37800	3.4297e-09
 0.37854	3.4258e-09
 0.37908	3.4220e-09
 0.37962	3.4181e-09
 0.38016	3.4141e-09
 0.38070	3.4102e-09
 0.38124	3.4062e-09
 0.38178	3.4021e-09
 0.38232	3.3980e-09
 0.38286	3.3939e-09
 0.38340	3.3897e-09
 0.38394	3.3855e-09
 0.38448	3.3812e-09
 0.38502	3.3769e-09
 0.38556	3.3726e-09
 0.38610	3.3682e-09
 0.38664	3.3639e-09
 0.38718	3.3594e-09
 0.38772	3.3549e-09
 0.38826	3.3504e-09
 0.38880	3.3459e-09
 0.38934	3.3413e-09
 0.38988	3.3367e-09
 0.39042	3.3320e-09
 0.39096	3.3272e-09
 0.39150	3.3224e-09
 0.39204	3.3176e-09
 0.39258	3.3127e-09
 0.39312	3.3078e-09
 0.39366	3.3029e-09
 0.39420	3.2979e-09
 0.39474	3.2928e-09
 0.39528	3.2877e-09
 0.39582	3.2826e-09
 0.39636	3.2775e-09
 0.39690	3.2723e-09
 0.39744	3.2670e-09
 0.39798	3.2618e-09
 0.39852	3.2564e-09
 0.39906	3.2510e-09
 0.39960	3.2456e-09
 0.40014	3.2401e-09
 0.40068	3.2346e-09
 0.40122	3.2291e-09
 0.40176	3.2235e-09
 0.40230	3.2178e-09
 0.40284	3.2121e-09
 0.40338	3.2064e-09
 0.40392	3.2007e-09
 0.40446	3.1948e-09
 0.40500	3.1890e-09
 0.40554	3.1831e-09
 0.40608	3.1771e-09
 0.40662	3.1712e-09
 0.40716	3.1652e-09
 0.40770	3.1592e-09
 0.40824	3.1531e-09
 0.40878	3.1471e-09
 0.40932	3.1411e-09
 0.40986	3.1350e-09
 0.41040	3.1289e-09
 0.41094	3.1228e-09
 0.41148	3.1166e-09
 0.41202	3.1103e-09
 0.41256	3.1040e-09
 0.41310	3.0977e-09
 0.41364	3.0914e-09
 0.41418	3.0851e-09
 0.41472	3.0787e-09
 0.41526	3.0724e-09
 0.41580	3.0660e-09
 0.41634	3.0596e-09
 0.41688	3.0532e-09
 0.41742	3.0467e-09
 0.41796	3.0403e-09
 0.41850	3.0338e-09
 0.41904	3.0272e-09
 0.41958	3.0207e-09
 0.42012	3.0142e-09
 0.42066	3.0076e-09
 0.42120	3.0011e-09
 0.42174	2.9945e-09
 0.42228	2.9880e-09
 0.42282	2.9814e-09
 0.42336	2.9749e-09
 0.42390	2.9684e-09
 0.42444	2.9620e-09
 0.42498	2.9557e-09
 0.42552	2.9493e-09
 0.42606	2.9429e-09
 0.42660	2.9363e-09
 0.42714	2.9296e-09
 0.42768	2.9229e-09
 0.42822	2.9162e-09
 0.42876	2.9096e-09
 0.42930	2.9030e-09
 0.42984	2.8965e-09
 0.43038	2.8900e-09
 0.43092	2.8836e-09
 0.43146	2.8772e-09
 0.43200	2.8708e-09
 0.43254	2.8645e-09
 0.43308	2.8581e-09
 0.43362	2.8517e-09
 0.43416	2.8453e-09
 0.43470	2.8389e-09
 0.43524	2.8325e-09
 0.43578	2.8262e-09
 0.43632	2.8198e-09
 0.43686	2.8135e-09
 0.43740	2.8071e-09
 0.43794	2.8008e-09
 0.43848	2.7945e-09
 0.43902	2.7881e-09
 0.43956	2.7817e-09
 0.44010	2.7753e-09
 0.44064	2.7689e-09
 0.44118	2.7626e-09
 0.44172	2.7562e-09
 0.44226	2.7498e-09
 0.44280	2.7434e-09
 0.44334	2.7369e-09
 0.44388	2.7304e-09
 0.44442	2.7239e-09
 0.44496	2.7175e-09
 0.44550	2.7120e-09
 0.44604	2.7084e-09
 0.44658	2.7081e-09
 0.44712	2.7122e-09
 0.44766	2.7213e-09
 0.44820	2.7345e-09
 0.44874	2.7505e-09
 0.44928	2.7679e-09
 0.44982	2.7858e-09
 0.45036	2.8036e-09
 0.45090	2.8211e-09
 0.45144	2.8383e-09
 0.45198	2.8552e-09
 0.45252	2.8719e-09
 0.45306	2.8884e-09
 0.45360	2.9047e-09
 0.45414	2.9208e-09
 0.45468	2.9368e-09
 0.45522	2.9527e-09
 0.45576	2.9685e-09
 0.45630	2.9841e-09
 0.45684	2.9996e-09
 0.45738	3.0149e-09
 0.45792	3.0300e-09
 0.45846	3.0450e-09
 0.45900	3.0597e-09
 0.45954	3.0743e-09
 0.46008	3.0887e-09
 0.46062	3.1029e-09
 0.46116	3.1169e-09
 0.46170	3.1308e-09
 0.46224	3.1445e-09
 0.46278	3.1580e-09
 0.46332	3.1714e-09
 0.46386	3.1846e-09
 0.46440	3.1976e-09
 0.46494	3.2105e-09
 0.46548	3.2232e-09
 0.46602	3.2358e-09
 0.46656	3.2482e-09
 0.46710	3.2605e-09
 0.46764	3.2726e-09
 0.46818	3.2846e-09
 0.46872	3.2965e-09
 0.46926	3.3082e-09
 0.46980	3.3203e-09
 0.47034	3.3330e-09
 0.47088	3.3466e-09
 0.47142	3.3609e-09
 0.47196	3.3754e-09
 0.47250	3.3889e-09
 0.47304	3.4007e-09
 0.47358	3.4107e-09
 0.47412	3.4194e-09
 0.47466	3.4276e-09
 0.47520	3.4355e-09
 0.47574	3.4435e-09
 0.47628	3.4514e-09
 0.47682	3.4593e-09
 0.47736	3.4671e-09
 0.47790	3.4749e-09
 0.47844	3.4825e-09
 0.47898	3.4901e-09
 0.47952	3.4979e-09
 0.48006	3.5065e-09
 0.48060	3.5164e-09
 0.48114	3.5279e-09
 0.48168	3.5405e-09
 0.48222	3.5533e-09
 0.48276	3.5653e-09
 0.48330	3.5761e-09
 0.48384	3.5860e-09
 0.48438	3.5951e-09
 0.48492	3.6040e-09
 0.48546	3.6127e-09
 0.48600	3.6214e-09
 0.48654	3.6299e-09
 0.48708	3.6384e-09
 0.48762	3.6468e-09
 0.48816	3.6551e-09
 0.48870	3.6634e-09
 0.48924	3.6716e-09
 0.48978	3.6797e-09
 0.49032	3.6878e-09
 0.49086	3.6958e-09
 0.49140	3.7038e-09
 0.49194	3.7119e-09
 0.49248	3.7201e-09
 0.49302	3.7283e-09
 0.49356	3.7364e-09
 0.49410	3.7445e-09
 0.49464	3.7524e-09
 0.49518	3.7600e-09
 0.49572	3.7675e-09
 0.49626	3.7750e-09
 0.49680	3.7823e-09
 0.49734	3.7896e-09
 0.49788	3.7968e-09
 0.49842	3.8040e-09
 0.49896	3.8111e-09
 0.49950	3.8182e-09
 0.50004	3.8253e-09
 0.50058	3.8323e-09
 0.50112	3.8392e-09
 0.50166	3.8462e-09
 0.50220	3.8531e-09
 0.50274	3.8599e-09
 0.50328	3.8668e-09
 0.50382	3.8735e-09
 0.50436	3.8803e-09
 0.50490	3.8870e-09
 0.50544	3.8936e-09
 0.50598	3.9003e-09
 0.50652	3.9069e-09
 0.50706	3.9134e-09
 0.50760	3.9199e-09
 0.50814	3.9264e-09
 0.50868	3.9328e-09
 0.50922	3.9392e-09
 0.50976	3.9456e-09
 0.51030	3.9521e-09
 0.51084	3.9587e-09
 0.51138	3.9652e-09
 0.51192	3.9717e-09
 0.51246	3.9779e-09
 0.51300	3.9839e-09
 0.51354	3.9897e-09
 0.51408	3.9954e-09
 0.51462	4.0009e-09
 0.51516	4.0063e-09
 0.51570	4.0117e-09
 0.51624	4.0171e-09
 0.51678	4.0225e-09
 0.51732	4.0280e-09
 0.51786	4.0336e-09
 0.51840	4.0392e-09
 0.51894	4.0448e-09
 0.51948	4.0503e-09
 0.52002	4.0558e-09
 0.52056	4.0611e-09
 0.52110	4.0662e-09
 0.52164	4.0713e-09
 0.52218	4.0763e-09
 0.52272	4.0813e-09
 0.52326	4.0863e-09
 0.52380	4.0913e-09
 0.52434	4.0963e-09
 0.52488	4.1013e-09
 0.52542	4.1062e-09
 0.52596	4.1111e-09
 0.52650	4.1160e-09
 0.52704	4.1208e-09
 0.52758	4.1256e-09
 0.52812	4.1304e-09
 0.52866	4.1352e-09
 0.52920	4.1399e-09
 0.52974	4.1446e-09
 0.53028	4.1492e-09
 0.53082	4.1536e-09
 0.53136	4.1580e-09
 0.53190	4.1624e-09
 0.53244	4.1667e-09
 0.53298	4.1709e-09
 0.53352	4.1748e-09
 0.53406	4.1784e-09
 0.53460	4.1812e-09
 0.53514	4.1831e-09
 0.53568	4.1842e-09
 0.53622	4.1843e-09
 0.53676	4.1838e-09
 0.53730	4.1830e-09
 0.53784	4.1821e-09
 0.53838	4.1812e-09
 0.53892	4.1802e-09
