Time	Current
 0.00000	1.5759e-09
 0.00054	1.4908e-09
 0.00108	1.4126e-09
 0.00162	1.3326e-09
 0.00216	1.2731e-09
 0.00270	1.2280e-09
 0.00324	1.1988e-09
 0.00378	1.1770e-09
 0.00432	1.1576e-09
 0.00486	1.1397e-09
 0.00540	1.1194e-09
 0.00594	1.1005e-09
 0.00648	1.0803e-09
 0.00702	1.0612e-09
 0.00756	1.0415e-09
 0.00810	1.0226e-09
 0.00864	1.0035e-09
 0.00918	9.8509e-10
 0.00972	9.6663e-10
 0.01026	9.4880e-10
 0.01080	9.3108e-10
 0.01134	9.1392e-10
 0.01188	8.9696e-10
 0.01242	8.8053e-10
 0.01296	8.6436e-10
 0.01350	8.4868e-10
 0.01404	8.3331e-10
 0.01458	8.1840e-10
 0.01512	8.0385e-10
 0.01566	7.8972e-10
 0.01620	7.7596e-10
 0.01674	7.6261e-10
 0.01728	7.4963e-10
 0.01782	7.3705e-10
 0.01836	7.2483e-10
 0.01890	7.1299e-10
 0.01944	7.0150e-10
 0.01998	6.9038e-10
 0.02052	6.7959e-10
 0.02106	6.6915e-10
 0.02160	6.5903e-10
 0.02214	6.4922e-10
 0.02268	6.3973e-10
 0.02322	6.3053e-10
 0.02376	6.2163e-10
 0.02430	6.1301e-10
 0.02484	6.0466e-10
 0.02538	5.9657e-10
 0.02592	5.8874e-10
 0.02646	5.8115e-10
 0.02700	5.7379e-10
 0.02754	5.6665e-10
 0.02808	5.5974e-10
 0.02862	5.5303e-10
 0.02916	5.4652e-10
 0.02970	5.4021e-10
 0.03024	5.3407e-10
 0.03078	5.2812e-10
 0.03132	5.2234e-10
 0.03186	5.1671e-10
 0.03240	5.1125e-10
 0.03294	5.0593e-10
 0.03348	5.0075e-10
 0.03402	4.9571e-10
 0.03456	4.9080e-10
 0.03510	4.8602e-10
 0.03564	4.8136e-10
 0.03618	4.7682e-10
 0.03672	4.7239e-10
 0.03726	4.6806e-10
 0.03780	4.6383e-10
 0.03834	4.5970e-10
 0.03888	4.5567e-10
 0.03942	4.5174e-10
 0.03996	4.4792e-10
 0.04050	4.4420e-10
 0.04104	4.4057e-10
 0.04158	4.3700e-10
 0.04212	4.3348e-10
 0.04266	4.3000e-10
 0.04320	4.2656e-10
 0.04374	4.2317e-10
 0.04428	4.1984e-10
 0.04482	4.1656e-10
 0.04536	4.1334e-10
 0.04590	4.1018e-10
 0.04644	4.0707e-10
 0.04698	4.0401e-10
 0.04752	4.0100e-10
 0.04806	3.9805e-10
 0.04860	3.9513e-10
 0.04914	3.9226e-10
 0.04968	3.8944e-10
 0.05022	3.8665e-10
 0.05076	3.8391e-10
 0.05130	3.8120e-10
 0.05184	3.7853e-10
 0.05238	3.7590e-10
 0.05292	3.7329e-10
 0.05346	3.7072e-10
 0.05400	3.6817e-10
 0.05454	3.6566e-10
 0.05508	3.6318e-10
 0.05562	3.6074e-10
 0.05616	3.5832e-10
 0.05670	3.5593e-10
 0.05724	3.5355e-10
 0.05778	3.5121e-10
 0.05832	3.4888e-10
 0.05886	3.4658e-10
 0.05940	3.4430e-10
 0.05994	3.4204e-10
 0.06048	3.3980e-10
 0.06102	3.3759e-10
 0.06156	3.3539e-10
 0.06210	3.3322e-10
 0.06264	3.3106e-10
 0.06318	3.2892e-10
 0.06372	3.2680e-10
 0.06426	3.2470e-10
 0.06480	3.2262e-10
 0.06534	3.2055e-10
 0.06588	3.1850e-10
 0.06642	3.1646e-10
 0.06696	3.1444e-10
 0.06750	3.1244e-10
 0.06804	3.1044e-10
 0.06858	3.0847e-10
 0.06912	3.0651e-10
 0.06966	3.0456e-10
 0.07020	3.0262e-10
 0.07074	3.0070e-10
 0.07128	2.9880e-10
 0.07182	2.9690e-10
 0.07236	2.9503e-10
 0.07290	2.9316e-10
 0.07344	2.9131e-10
 0.07398	2.8947e-10
 0.07452	2.8764e-10
 0.07506	2.8583e-10
 0.07560	2.8403e-10
 0.07614	2.8223e-10
 0.07668	2.8045e-10
 0.07722	2.7869e-10
 0.07776	2.7693e-10
 0.07830	2.7519e-10
 0.07884	2.7345e-10
 0.07938	2.7173e-10
 0.07992	2.7001e-10
 0.08046	2.6830e-10
 0.08100	2.6660e-10
 0.08154	2.6492e-10
 0.08208	2.6325e-10
 0.08262	2.6159e-10
 0.08316	2.5994e-10
 0.08370	2.5830e-10
 0.08424	2.5667e-10
 0.08478	2.5505e-10
 0.08532	2.5344e-10
 0.08586	2.5184e-10
 0.08640	2.5024e-10
 0.08694	2.4866e-10
 0.08748	2.4709e-10
 0.08802	2.4552e-10
 0.08856	2.4397e-10
 0.08910	2.4243e-10
 0.08964	2.4089e-10
 0.09018	2.3936e-10
 0.09072	2.3784e-10
 0.09126	2.3633e-10
 0.09180	2.3483e-10
 0.09234	2.3334e-10
 0.09288	2.3185e-10
 0.09342	2.3038e-10
 0.09396	2.2891e-10
 0.09450	2.2745e-10
 0.09504	2.2601e-10
 0.09558	2.2457e-10
 0.09612	2.2314e-10
 0.09666	2.2172e-10
 0.09720	2.2030e-10
 0.09774	2.1889e-10
 0.09828	2.1749e-10
 0.09882	2.1610e-10
 0.09936	2.1471e-10
 0.09990	2.1334e-10
 0.10044	2.1197e-10
 0.10098	2.1062e-10
 0.10152	2.0927e-10
 0.10206	2.0793e-10
 0.10260	2.0659e-10
 0.10314	2.0527e-10
 0.10368	2.0395e-10
 0.10422	2.0264e-10
 0.10476	2.0133e-10
 0.10530	2.0003e-10
 0.10584	1.9874e-10
 0.10638	1.9745e-10
 0.10692	1.9617e-10
 0.10746	1.9491e-10
 0.10800	1.9365e-10
 0.10854	1.9240e-10
 0.10908	1.9115e-10
 0.10962	1.8991e-10
 0.11016	1.8868e-10
 0.11070	1.8745e-10
 0.11124	1.8623e-10
 0.11178	1.8502e-10
 0.11232	1.8382e-10
 0.11286	1.8263e-10
 0.11340	1.8144e-10
 0.11394	1.8026e-10
 0.11448	1.7908e-10
 0.11502	1.7791e-10
 0.11556	1.7675e-10
 0.11610	1.7559e-10
 0.11664	1.7444e-10
 0.11718	1.7329e-10
 0.11772	1.7216e-10
 0.11826	1.7103e-10
 0.11880	1.6991e-10
 0.11934	1.6879e-10
 0.11988	1.6768e-10
 0.12042	1.6658e-10
 0.12096	1.6548e-10
 0.12150	1.6439e-10
 0.12204	1.6331e-10
 0.12258	1.6223e-10
 0.12312	1.6116e-10
 0.12366	1.6009e-10
 0.12420	1.5903e-10
 0.12474	1.5798e-10
 0.12528	1.5693e-10
 0.12582	1.5588e-10
 0.12636	1.5485e-10
 0.12690	1.5382e-10
 0.12744	1.5279e-10
 0.12798	1.5178e-10
 0.12852	1.5076e-10
 0.12906	1.4975e-10
 0.12960	1.4875e-10
 0.13014	1.4776e-10
 0.13068	1.4677e-10
 0.13122	1.4579e-10
 0.13176	1.4481e-10
 0.13230	1.4384e-10
 0.13284	1.4288e-10
 0.13338	1.4192e-10
 0.13392	1.4096e-10
 0.13446	1.4001e-10
 0.13500	1.3906e-10
 0.13554	1.3813e-10
 0.13608	1.3719e-10
 0.13662	1.3627e-10
 0.13716	1.3535e-10
 0.13770	1.3443e-10
 0.13824	1.3352e-10
 0.13878	1.3261e-10
 0.13932	1.3170e-10
 0.13986	1.3080e-10
 0.14040	1.2991e-10
 0.14094	1.2903e-10
 0.14148	1.2815e-10
 0.14202	1.2728e-10
 0.14256	1.2641e-10
 0.14310	1.2554e-10
 0.14364	1.2468e-10
 0.14418	1.2383e-10
 0.14472	1.2297e-10
 0.14526	1.2213e-10
 0.14580	1.2129e-10
 0.14634	1.2045e-10
 0.14688	1.1962e-10
 0.14742	1.1879e-10
 0.14796	1.1797e-10
 0.14850	1.1715e-10
 0.14904	1.1634e-10
 0.14958	1.1554e-10
 0.15012	1.1473e-10
 0.15066	1.1394e-10
 0.15120	1.1315e-10
 0.15174	1.1236e-10
 0.15228	1.1158e-10
 0.15282	1.1080e-10
 0.15336	1.1002e-10
 0.15390	1.0925e-10
 0.15444	1.0848e-10
 0.15498	1.0772e-10
 0.15552	1.0696e-10
 0.15606	1.0620e-10
 0.15660	1.0546e-10
 0.15714	1.0472e-10
 0.15768	1.0398e-10
 0.15822	1.0325e-10
 0.15876	1.0252e-10
 0.15930	1.0179e-10
 0.15984	1.0107e-10
 0.16038	1.0035e-10
 0.16092	9.9632e-11
 0.16146	9.8924e-11
 0.16200	9.8220e-11
 0.16254	9.7520e-11
 0.16308	9.6822e-11
 0.16362	9.6127e-11
 0.16416	9.5435e-11
 0.16470	9.4749e-11
 0.16524	9.4068e-11
 0.16578	9.3392e-11
 0.16632	9.2721e-11
 0.16686	9.2052e-11
 0.16740	9.1386e-11
 0.16794	9.0722e-11
 0.16848	9.0061e-11
 0.16902	8.9405e-11
 0.16956	8.8752e-11
 0.17010	8.8104e-11
 0.17064	8.7461e-11
 0.17118	8.6821e-11
 0.17172	8.6184e-11
 0.17226	8.5551e-11
 0.17280	8.4922e-11
 0.17334	8.4299e-11
 0.17388	8.3682e-11
 0.17442	8.3070e-11
 0.17496	8.2461e-11
 0.17550	8.1852e-11
 0.17604	8.1244e-11
 0.17658	8.0639e-11
 0.17712	8.0035e-11
 0.17766	7.9434e-11
 0.17820	7.8838e-11
 0.17874	7.8246e-11
 0.17928	7.7661e-11
 0.17982	7.7080e-11
 0.18036	7.6504e-11
 0.18090	7.5931e-11
 0.18144	7.5361e-11
 0.18198	7.4793e-11
 0.18252	7.4228e-11
 0.18306	7.3666e-11
 0.18360	7.3106e-11
 0.18414	7.2550e-11
 0.18468	7.1997e-11
 0.18522	7.1450e-11
 0.18576	7.0907e-11
 0.18630	7.0367e-11
 0.18684	6.9830e-11
 0.18738	6.9292e-11
 0.18792	6.8756e-11
 0.18846	6.8221e-11
 0.18900	6.7692e-11
 0.18954	6.7165e-11
 0.19008	6.6643e-11
 0.19062	6.6124e-11
 0.19116	6.5608e-11
 0.19170	6.5097e-11
 0.19224	6.4589e-11
 0.19278	6.4084e-11
 0.19332	6.3580e-11
 0.19386	6.3080e-11
 0.19440	6.2582e-11
 0.19494	6.2089e-11
 0.19548	6.1600e-11
 0.19602	6.1113e-11
 0.19656	6.0628e-11
 0.19710	6.0143e-11
 0.19764	5.9660e-11
 0.19818	5.9180e-11
 0.19872	5.8704e-11
 0.19926	5.8231e-11
 0.19980	5.7761e-11
 0.20034	5.7294e-11
 0.20088	5.6831e-11
 0.20142	5.6371e-11
 0.20196	5.5914e-11
 0.20250	5.5459e-11
 0.20304	5.5006e-11
 0.20358	5.4555e-11
 0.20412	5.4107e-11
 0.20466	5.3662e-11
 0.20520	5.3220e-11
 0.20574	5.2779e-11
 0.20628	5.2341e-11
 0.20682	5.1907e-11
 0.20736	5.1474e-11
 0.20790	5.1044e-11
 0.20844	5.0616e-11
 0.20898	5.0190e-11
 0.20952	4.9766e-11
 0.21006	4.9345e-11
 0.21060	4.8928e-11
 0.21114	4.8512e-11
 0.21168	4.8100e-11
 0.21222	4.7690e-11
 0.21276	4.7283e-11
 0.21330	4.6879e-11
 0.21384	4.6478e-11
 0.21438	4.6078e-11
 0.21492	4.5680e-11
 0.21546	4.5283e-11
 0.21600	4.4888e-11
 0.21654	4.4494e-11
 0.21708	4.4101e-11
 0.21762	4.3711e-11
 0.21816	4.3324e-11
 0.21870	4.2939e-11
 0.21924	4.2558e-11
 0.21978	4.2180e-11
 0.22032	4.1805e-11
 0.22086	4.1434e-11
 0.22140	4.1066e-11
 0.22194	4.0699e-11
 0.22248	4.0333e-11
 0.22302	3.9965e-11
 0.22356	3.9597e-11
 0.22410	3.9231e-11
 0.22464	3.8869e-11
 0.22518	3.8510e-11
 0.22572	3.8155e-11
 0.22626	3.7802e-11
 0.22680	3.7452e-11
 0.22734	3.7103e-11
 0.22788	3.6755e-11
 0.22842	3.6410e-11
 0.22896	3.6066e-11
 0.22950	3.5727e-11
 0.23004	3.5390e-11
 0.23058	3.5056e-11
 0.23112	3.4723e-11
 0.23166	3.4390e-11
 0.23220	3.4058e-11
 0.23274	3.3727e-11
 0.23328	3.3399e-11
 0.23382	3.3075e-11
 0.23436	3.2752e-11
 0.23490	3.2431e-11
 0.23544	3.2110e-11
 0.23598	3.1789e-11
 0.23652	3.1469e-11
 0.23706	3.1151e-11
 0.23760	3.0837e-11
 0.23814	3.0526e-11
 0.23868	3.0218e-11
 0.23922	2.9913e-11
 0.23976	2.9609e-11
 0.24030	2.9306e-11
 0.24084	2.9004e-11
 0.24138	2.8703e-11
 0.24192	2.8405e-11
 0.24246	2.8108e-11
 0.24300	2.7813e-11
 0.24354	2.7519e-11
 0.24408	2.7226e-11
 0.24462	2.6934e-11
 0.24516	2.6645e-11
 0.24570	2.6357e-11
 0.24624	2.6073e-11
 0.24678	2.5790e-11
 0.24732	2.5508e-11
 0.24786	2.5226e-11
 0.24840	2.4946e-11
 0.24894	2.4667e-11
 0.24948	2.4392e-11
 0.25002	2.4119e-11
 0.25056	2.3850e-11
 0.25110	2.3582e-11
 0.25164	2.3313e-11
 0.25218	2.3043e-11
 0.25272	2.2775e-11
 0.25326	2.2507e-11
 0.25380	2.2242e-11
 0.25434	2.1980e-11
 0.25488	2.1720e-11
 0.25542	2.1462e-11
 0.25596	2.1206e-11
 0.25650	2.0950e-11
 0.25704	2.0694e-11
 0.25758	2.0437e-11
 0.25812	2.0181e-11
 0.25866	1.9931e-11
 0.25920	1.9685e-11
 0.25974	1.9441e-11
 0.26028	1.9197e-11
 0.26082	1.8952e-11
 0.26136	1.8707e-11
 0.26190	1.8463e-11
 0.26244	1.8220e-11
 0.26298	1.7982e-11
 0.26352	1.7747e-11
 0.26406	1.7513e-11
 0.26460	1.7278e-11
 0.26514	1.7044e-11
 0.26568	1.6811e-11
 0.26622	1.6579e-11
 0.26676	1.6348e-11
 0.26730	1.6120e-11
 0.26784	1.5894e-11
 0.26838	1.5670e-11
 0.26892	1.5448e-11
 0.26946	1.5225e-11
 0.27000	1.5001e-11
 0.27054	1.4776e-11
 0.27108	1.4553e-11
 0.27162	1.4331e-11
 0.27216	1.4113e-11
 0.27270	1.3900e-11
 0.27324	1.3691e-11
 0.27378	1.3486e-11
 0.27432	1.3279e-11
 0.27486	1.3071e-11
 0.27540	1.2860e-11
 0.27594	1.2648e-11
 0.27648	1.2437e-11
 0.27702	1.2227e-11
 0.27756	1.2018e-11
 0.27810	1.1810e-11
 0.27864	1.1605e-11
 0.27918	1.1403e-11
 0.27972	1.1204e-11
 0.28026	1.1008e-11
 0.28080	1.0813e-11
 0.28134	1.0617e-11
 0.28188	1.0420e-11
 0.28242	1.0224e-11
 0.28296	1.0027e-11
 0.28350	9.8323e-12
 0.28404	9.6383e-12
 0.28458	9.4460e-12
 0.28512	9.2559e-12
 0.28566	9.0679e-12
 0.28620	8.8806e-12
 0.28674	8.6930e-12
 0.28728	8.5046e-12
 0.28782	8.3177e-12
 0.28836	8.1330e-12
 0.28890	7.9501e-12
 0.28944	7.7686e-12
 0.28998	7.5873e-12
 0.29052	7.4063e-12
 0.29106	7.2268e-12
 0.29160	7.0492e-12
 0.29214	6.8739e-12
 0.29268	6.7002e-12
 0.29322	6.5269e-12
 0.29376	6.3543e-12
 0.29430	6.1838e-12
 0.29484	6.0155e-12
 0.29538	5.8482e-12
 0.29592	5.6798e-12
 0.29646	5.5087e-12
 0.29700	5.3373e-12
 0.29754	5.1677e-12
 0.29808	5.0001e-12
 0.29862	4.8347e-12
 0.29916	4.6703e-12
 0.29970	4.5058e-12
 0.30024	4.3417e-12
 0.30078	4.1791e-12
 0.30132	4.0186e-12
 0.30186	3.8607e-12
 0.30240	3.7049e-12
 0.30294	3.5504e-12
 0.30348	3.3963e-12
 0.30402	3.2413e-12
 0.30456	3.0851e-12
 0.30510	2.9272e-12
 0.30564	2.7689e-12
 0.30618	2.6112e-12
 0.30672	2.4566e-12
 0.30726	2.3043e-12
 0.30780	2.1549e-12
 0.30834	2.0067e-12
 0.30888	1.8589e-12
 0.30942	1.7110e-12
 0.30996	1.5627e-12
 0.31050	1.4153e-12
 0.31104	1.2699e-12
 0.31158	1.1264e-12
 0.31212	9.8391e-13
 0.31266	8.4209e-13
 0.31320	6.9988e-13
 0.31374	5.5850e-13
 0.31428	4.2092e-13
 0.31482	2.9389e-13
 0.31536	1.8632e-13
 0.31590	1.0500e-13
 0.31644	5.1445e-14
 0.31698	2.1345e-14
 0.31752	7.1819e-15
 0.31806	1.7757e-15
 0.31860	2.7937e-16
 0.31914	6.9389e-24
 0.31968	6.9389e-24
 0.32022	6.9389e-24
 0.32076	6.9389e-24
 0.32130	6.9389e-24
 0.32184	6.9389e-24
 0.32238	6.9389e-24
 0.32292	6.9389e-24
 0.32346	6.9389e-24
 0.32400	6.9389e-24
 0.32454	6.9389e-24
 0.32508	6.9389e-24
 0.32562	6.9389e-24
 0.32616	6.9389e-24
 0.32670	6.9389e-24
 0.32724	6.9389e-24
 0.32778	6.9389e-24
 0.32832	6.9389e-24
 0.32886	6.9389e-24
 0.32940	6.9389e-24
 0.32994	6.9389e-24
 0.33048	6.9389e-24
 0.33102	6.9389e-24
 0.33156	6.9389e-24
 0.33210	6.9389e-24
 0.33264	6.9389e-24
 0.33318	6.9389e-24
 0.33372	6.9389e-24
 0.33426	6.9389e-24
 0.33480	6.9389e-24
 0.33534	6.9389e-24
 0.33588	6.9389e-24
 0.33642	6.9389e-24
 0.33696	6.9389e-24
 0.33750	6.9389e-24
 0.33804	6.9389e-24
 0.33858	6.9389e-24
 0.33912	6.9389e-24
 0.33966	6.9389e-24
 0.34020	6.9389e-24
 0.34074	6.9389e-24
 0.34128	6.9389e-24
 0.34182	6.9389e-24
 0.34236	6.9389e-24
 0.34290	6.9389e-24
 0.34344	6.9389e-24
 0.34398	6.9389e-24
 0.34452	6.9389e-24
 0.34506	6.9389e-24
 0.34560	6.9389e-24
 0.34614	6.9389e-24
 0.34668	6.9389e-24
 0.34722	6.9389e-24
 0.34776	6.9389e-24
 0.34830	6.9389e-24
 0.34884	6.9389e-24
 0.34938	6.9389e-24
 0.34992	6.9389e-24
 0.35046	6.9389e-24
 0.35100	6.9389e-24
 0.35154	6.9389e-24
 0.35208	6.9389e-24
 0.35262	6.9389e-24
 0.35316	6.9389e-24
 0.35370	6.9389e-24
 0.35424	6.9389e-24
 0.35478	6.9389e-24
 0.35532	6.9389e-24
 0.35586	6.9389e-24
 0.35640	6.9389e-24
 0.35694	6.9389e-24
 0.35748	6.9389e-24
 0.35802	6.9389e-24
 0.35856	6.9389e-24
 0.35910	6.9389e-24
 0.35964	6.9389e-24
 0.36018	6.9389e-24
 0.36072	6.9389e-24
 0.36126	6.9389e-24
 0.36180	6.9389e-24
 0.36234	6.9389e-24
 0.36288	6.9389e-24
 0.36342	6.9389e-24
 0.36396	6.9389e-24
 0.36450	6.9389e-24
 0.36504	6.9389e-24
 0.36558	6.9389e-24
 0.36612	6.9389e-24
 0.36666	6.9389e-24
 0.36720	6.9389e-24
 0.36774	6.9389e-24
 0.36828	6.9389e-24
 0.36882	6.9389e-24
 0.36936	6.9389e-24
 0.36990	6.9389e-24
 0.37044	6.9389e-24
 0.37098	6.9389e-24
 0.37152	6.9389e-24
 0.37206	6.9389e-24
 0.37260	6.9389e-24
 0.37314	6.9389e-24
 0.37368	6.9389e-24
 0.37422	6.9389e-24
 0.37476	6.9389e-24
 0.37530	6.9389e-24
 0.37584	6.9389e-24
 0.37638	6.9389e-24
 0.37692	6.9389e-24
 0.37746	6.9389e-24
 0.37800	6.9389e-24
 0.37854	6.9389e-24
 0.37908	6.9389e-24
 0.37962	6.9389e-24
 0.38016	6.9389e-24
 0.38070	6.9389e-24
 0.38124	6.9389e-24
 0.38178	6.9389e-24
 0.38232	6.9389e-24
 0.38286	6.9389e-24
 0.38340	6.9389e-24
 0.38394	6.9389e-24
 0.38448	6.9389e-24
 0.38502	6.9389e-24
 0.38556	6.9389e-24
 0.38610	6.9389e-24
 0.38664	6.9389e-24
 0.38718	6.9389e-24
 0.38772	6.9389e-24
 0.38826	6.9389e-24
 0.38880	6.9389e-24
 0.38934	6.9389e-24
 0.38988	6.9389e-24
 0.39042	6.9389e-24
 0.39096	6.9389e-24
 0.39150	6.9389e-24
 0.39204	6.9389e-24
 0.39258	6.9389e-24
 0.39312	6.9389e-24
 0.39366	6.9389e-24
 0.39420	6.9389e-24
 0.39474	6.9389e-24
 0.39528	6.9389e-24
 0.39582	6.9389e-24
 0.39636	6.9389e-24
 0.39690	6.9389e-24
 0.39744	6.9389e-24
 0.39798	6.9389e-24
 0.39852	6.9389e-24
 0.39906	6.9389e-24
 0.39960	6.9389e-24
 0.40014	6.9389e-24
 0.40068	6.9389e-24
 0.40122	6.9389e-24
 0.40176	6.9389e-24
 0.40230	6.9389e-24
 0.40284	6.9389e-24
 0.40338	6.9389e-24
 0.40392	6.9389e-24
 0.40446	6.9389e-24
 0.40500	6.9389e-24
 0.40554	6.9389e-24
 0.40608	6.9389e-24
 0.40662	6.9389e-24
 0.40716	6.9389e-24
 0.40770	6.9389e-24
 0.40824	6.9389e-24
 0.40878	6.9389e-24
 0.40932	6.9389e-24
 0.40986	6.9389e-24
 0.41040	6.9389e-24
 0.41094	6.9389e-24
 0.41148	6.9389e-24
 0.41202	6.9389e-24
 0.41256	6.9389e-24
 0.41310	6.9389e-24
 0.41364	6.9389e-24
 0.41418	6.9389e-24
 0.41472	6.9389e-24
 0.41526	6.9389e-24
 0.41580	6.9389e-24
 0.41634	6.9389e-24
 0.41688	6.9389e-24
 0.41742	6.9389e-24
 0.41796	6.9389e-24
 0.41850	6.9389e-24
 0.41904	6.9389e-24
 0.41958	6.9389e-24
 0.42012	6.9389e-24
 0.42066	6.9389e-24
 0.42120	6.9389e-24
 0.42174	6.9389e-24
 0.42228	6.9389e-24
 0.42282	6.9389e-24
 0.42336	6.9389e-24
 0.42390	6.9389e-24
 0.42444	6.9389e-24
 0.42498	6.9389e-24
 0.42552	6.9389e-24
 0.42606	6.9389e-24
 0.42660	6.9389e-24
 0.42714	6.9389e-24
 0.42768	6.9389e-24
 0.42822	6.9389e-24
 0.42876	6.9389e-24
 0.42930	6.9389e-24
 0.42984	6.9389e-24
 0.43038	6.9389e-24
 0.43092	6.9389e-24
 0.43146	6.9389e-24
 0.43200	6.9389e-24
 0.43254	6.9389e-24
 0.43308	6.9389e-24
 0.43362	6.9389e-24
 0.43416	6.9389e-24
 0.43470	6.9389e-24
 0.43524	6.9389e-24
 0.43578	6.9389e-24
 0.43632	6.9389e-24
 0.43686	6.9389e-24
 0.43740	6.9389e-24
 0.43794	6.9389e-24
 0.43848	6.9389e-24
 0.43902	6.9389e-24
 0.43956	6.9389e-24
 0.44010	6.9389e-24
 0.44064	6.9389e-24
 0.44118	6.9389e-24
 0.44172	6.9389e-24
 0.44226	6.9389e-24
 0.44280	6.9389e-24
 0.44334	6.9389e-24
 0.44388	6.9389e-24
 0.44442	6.9389e-24
 0.44496	6.9389e-24
 0.44550	6.9389e-24
 0.44604	6.9389e-24
 0.44658	6.9389e-24
 0.44712	6.9389e-24
 0.44766	6.9389e-24
 0.44820	6.9389e-24
 0.44874	6.9389e-24
 0.44928	6.9389e-24
 0.44982	6.9389e-24
 0.45036	6.9389e-24
 0.45090	6.9389e-24
 0.45144	6.9389e-24
 0.45198	6.9389e-24
 0.45252	6.9389e-24
 0.45306	6.9389e-24
 0.45360	6.9389e-24
 0.45414	6.9389e-24
 0.45468	6.9389e-24
 0.45522	6.9389e-24
 0.45576	6.9389e-24
 0.45630	6.9389e-24
 0.45684	6.9389e-24
 0.45738	6.9389e-24
 0.45792	6.9389e-24
 0.45846	6.9389e-24
 0.45900	6.9389e-24
 0.45954	6.9389e-24
 0.46008	6.9389e-24
 0.46062	6.9389e-24
 0.46116	6.9389e-24
 0.46170	6.9389e-24
 0.46224	6.9389e-24
 0.46278	6.9389e-24
 0.46332	6.9389e-24
 0.46386	6.9389e-24
 0.46440	6.9389e-24
 0.46494	6.9389e-24
 0.46548	6.9389e-24
 0.46602	6.9389e-24
 0.46656	6.9389e-24
 0.46710	6.9389e-24
 0.46764	6.9389e-24
 0.46818	6.9389e-24
 0.46872	6.9389e-24
 0.46926	6.9389e-24
 0.46980	6.9389e-24
 0.47034	6.9389e-24
 0.47088	6.9389e-24
 0.47142	6.9389e-24
 0.47196	6.9389e-24
 0.47250	6.9389e-24
 0.47304	6.9389e-24
 0.47358	6.9389e-24
 0.47412	6.9389e-24
 0.47466	6.9389e-24
 0.47520	6.9389e-24
 0.47574	6.9389e-24
 0.47628	6.9389e-24
 0.47682	6.9389e-24
 0.47736	6.9389e-24
 0.47790	6.9389e-24
 0.47844	6.9389e-24
 0.47898	6.9389e-24
 0.47952	6.9389e-24
 0.48006	6.9389e-24
 0.48060	6.9389e-24
 0.48114	6.9389e-24
 0.48168	6.9389e-24
 0.48222	6.9389e-24
 0.48276	6.9389e-24
 0.48330	6.9389e-24
 0.48384	6.9389e-24
 0.48438	6.9389e-24
 0.48492	6.9389e-24
 0.48546	6.9389e-24
 0.48600	6.9389e-24
 0.48654	6.9389e-24
 0.48708	6.9389e-24
 0.48762	6.9389e-24
 0.48816	6.9389e-24
 0.48870	6.9389e-24
 0.48924	6.9389e-24
 0.48978	6.9389e-24
 0.49032	6.9389e-24
 0.49086	6.9389e-24
 0.49140	6.9389e-24
 0.49194	6.9389e-24
 0.49248	6.9389e-24
 0.49302	6.9389e-24
 0.49356	6.9389e-24
 0.49410	6.9389e-24
 0.49464	6.9389e-24
 0.49518	6.9389e-24
 0.49572	6.9389e-24
 0.49626	6.9389e-24
 0.49680	6.9389e-24
 0.49734	6.9389e-24
 0.49788	6.9389e-24
 0.49842	6.9389e-24
 0.49896	6.9389e-24
 0.49950	6.9389e-24
 0.50004	6.9389e-24
 0.50058	6.9389e-24
 0.50112	6.9389e-24
 0.50166	6.9389e-24
 0.50220	6.9389e-24
 0.50274	6.9389e-24
 0.50328	6.9389e-24
 0.50382	6.9389e-24
 0.50436	6.9389e-24
 0.50490	6.9389e-24
 0.50544	6.9389e-24
 0.50598	6.9389e-24
 0.50652	6.9389e-24
 0.50706	6.9389e-24
 0.50760	6.9389e-24
 0.50814	6.9389e-24
 0.50868	6.9389e-24
 0.50922	6.9389e-24
 0.50976	6.9389e-24
 0.51030	6.9389e-24
 0.51084	6.9389e-24
 0.51138	6.9389e-24
 0.51192	6.9389e-24
 0.51246	6.9389e-24
 0.51300	6.9389e-24
 0.51354	6.9389e-24
 0.51408	6.9389e-24
 0.51462	6.9389e-24
 0.51516	6.9389e-24
 0.51570	6.9389e-24
 0.51624	6.9389e-24
 0.51678	6.9389e-24
 0.51732	6.9389e-24
 0.51786	6.9389e-24
 0.51840	6.9389e-24
 0.51894	6.9389e-24
 0.51948	6.9389e-24
 0.52002	6.9389e-24
 0.52056	6.9389e-24
 0.52110	6.9389e-24
 0.52164	6.9389e-24
 0.52218	6.9389e-24
 0.52272	6.9389e-24
 0.52326	6.9389e-24
 0.52380	6.9389e-24
 0.52434	6.9389e-24
 0.52488	6.9389e-24
 0.52542	6.9389e-24
 0.52596	6.9389e-24
 0.52650	6.9389e-24
 0.52704	6.9389e-24
 0.52758	6.9389e-24
 0.52812	6.9389e-24
 0.52866	6.9389e-24
 0.52920	6.9389e-24
 0.52974	6.9389e-24
 0.53028	6.9389e-24
 0.53082	6.9389e-24
 0.53136	6.9389e-24
 0.53190	6.9389e-24
 0.53244	6.9389e-24
 0.53298	6.9389e-24
 0.53352	6.9389e-24
 0.53406	6.9389e-24
 0.53460	6.9389e-24
 0.53514	6.9389e-24
 0.53568	6.9389e-24
 0.53622	6.9389e-24
 0.53676	6.9389e-24
 0.53730	6.9389e-24
 0.53784	6.9389e-24
 0.53838	6.9389e-24
 0.53892	6.9389e-24
